580
562
536
359
657
576
463
518
527
583
622
389
444
527
608
487
385
546
639
498
435
504
546
563
570
384
676
526
485
264
554
643
452
667
493
541
510
644
358
564
646
549
282
577
607
499
499
455
662
472
409
405
642
590
263
733
547
508
683
388
563
516
510
677
43
745
529
639
456
579
718
451
493
401
693
485
517
463
496
569
466
292
814
508
443
316
474
840
646
533
405
693
599
208
478
391
503
292
476
406
688
494
645
454
694
512
462
276
547
598
536
510
603
613
451
664
62
758
568
465
395
551
567
513
468
577
515
671
602
355
705
556
461
340
561
640
444
483
588
610
466
697
364
623
636
439
442
527
532
524
431
601
719
545
471
467
759
485
561
513
578
591
506
475
593
582
521
542
413
561
550
474
370
544
736
441
456
512
655
508
489
313
740
436
457
364
351
562
508
419
505
769
524
554
396
727
457
445
355
525
754
490
370
495
653
538
435
512
582
470
500
407
497
544
523
400
552
603
491
450
433
733
533
450
469
549
736
484
436
575
659
481
483
497
739
491
501
315
581
698
451
458
497
675
498
476
307
1023
528
541
356
533
453
403
452
583
433
620
461
455
826
568
432
559
609
667
496
405
658
612
479
499
528
517
516
506
456
567
569
500
362
617
610
551
465
495
543
618
699
285
596
631
477
473
489
673
428
487
356
605
456
459
454
275
639
432
323
469
588
559
630
605
630
518
395
409
461
658
276
436
502
541
474
451
457
616
684
538
475
608
545
561
483
519
612
488
360
545
632
578
602
405
490
837
530
325
521
617
618
349
406
665
544
486
399
696
506
511
416
532
651
488
538
476
684
520
541
442
554
584
492
384
411
678
454
461
462
645
558
561
379
618
573
306
415
568
630
529
545
463
634
503
550
420
602
619
487
385
505
639
521
466
474
607
417
602
362
544
721
472
412
418
567
497
574
445
648
554
451
335
600
555
442
432
502
697
498
491
540
713
573
511
402
624
580
475
262
494
744
387
430
520
486
528
534
431
671
498
476
451
488
616
653
378
425
884
429
332
462
621
595
482
336
517
671
617
324
484
736
558
415
458
690
516
413
305
529
662
483
502
464
503
698
246
312
715
530
493
445
384
764
694
498
439
767
451
460
435
526
769
485
367
489
672
584
465
515
516
532
479
442
651
457
498
369
483
773
512
538
480
637
424
701
334
536
645
301
557
493
636
548
502
416
629
490
365
661
543
594
505
241
575
636
459
474
375
858
422
474
501
698
464
544
378
529
632
537
467
380
630
498
375
576
579
611
444
471
498
579
660
443
445
722
440
690
300
582
661
510
365
570
628
530
415
498
651
495
456
499
591
541
605
332
529
475
673
374
606
540
562
336
630
711
485
550
339
749
513
472
435
471
698
256
683
307
755
504
659
307
639
606
457
548
459
648
535
491
471
621
481
496
266
577
685
402
604
475
559
435
312
469
657
506
696
397
422
722
435
528
489
646
502
418
380
623
500
364
592
575
623
550
380
545
646
639
493
464
542
447
698
264
552
623
481
484
466
505
632
465
425
601
596
486
322
574
641
542
469
451
690
690
578
477
615
479
587
368
540
604
520
451
457
498
564
519
434
759
593
478
334
507
591
481
553
487
622
619
495
480
558
791
434
492
466
642
462
439
480
529
701
449
451
592
539
669
320
509
629
550
476
502
627
517
411
508
782
532
598
526
547
556
496
362
493
627
535
501
471
671
491
355
368
537
590
573
382
658
606
572
396
519
574
612
429
363
808
480
535
462
521
581
619
433
232
821
519
499
316
520
1023
107
489
451
484
624
455
412
597
596
740
112
760
598
496
497
252
748
321
947
439
678
586
434
270
542
538
588
170
1023
529
462
475
485
798
548
440
578
522
454
669
290
432
588
674
462
305
516
1016
375
467
502
591
446
170
597
650
507
534
469
621
646
281
683
541
486
1023
190
582
691
454
469
450
739
565
444
319
1023
348
544
420
472
585
582
68
731
582
515
469
448
504
698
436
32
699
525
451
438
493
488
564
372
668
646
319
523
372
348
630
394
504
403
629
617
491
416
720
469
617
468
450
697
640
419
397
615
513
449
463
764
475
377
449
490
761
536
534
411
624
534
463
381
720
565
466
487
462
646
504
431
489
615
499
644
463
524
647
528
376
430
679
417
541
433
624
542
453
339
640
484
510
468
499
685
502
464
688
527
522
466
567
526
579
475
551
484
748
498
452
465
560
586
472
352
702
512
479
446
520
616
494
295
779
497
641
438
401
527
689
440
369
520
709
447
464
324
633
507
493
460
578
473
471
598
496
758
537
489
401
635
416
516
525
589
627
463
376
527
592
515
386
634
514
508
486
436
513
585
444
371
530
678
501
475
352
698
514
473
468
550
722
535
322
565
761
497
504
383
747
629
439
435
642
497
474
418
505
632
501
561
489
619
590
479
479
586
536
508
387
654
712
517
451
559
548
525
453
374
847
532
598
411
530
671
447
483
430
583
423
1023
301
614
521
524
303
699
599
494
498
541
561
564
520
332
747
598
534
375
497
576
390
462
534
605
624
456
468
685
516
524
437
525
534
632
431
493
649
535
453
433
717
493
623
291
576
685
457
424
422
575
661
193
490
571
554
617
444
535
532
467
752
439
1023
416
300
396
602
569
490
429
696
575
500
449
536
626
527
459
349
695
404
490
443
597
470
637
371
554
630
366
544
428
662
631
490
211
623
678
491
513
515
666
571
673
421
670
614
470
377
536
455
544
477
562
581
565
418
429
639
595
495
410
580
628
467
413
489
721
536
496
439
721
442
515
348
544
550
504
423
668
653
507
509
442
568
525
497
328
605
628
510
448
572
582
484
555
461
631
589
575
322
572
777
436
458
473
631
528
544
385
698
679
406
493
479
649
541
256
536
261
833
283
400
745
655
453
283
741
640
580
305
477
788
524
499
428
654
556
462
240
675
629
547
570
482
507
695
352
410
729
508
745
287
577
562
474
397
437
594
538
376
417
769
586
425
457
574
591
381
458
497
626
463
477
445
716
483
456
524
542
616
534
464
391
866
471
473
406
668
448
514
332
604
540
484
410
518
566
556
584
459
638
448
457
437
662
539
412
412
450
797
472
400
747
544
686
498
424
549
575
414
587
455
807
197
966
311
681
659
524
381
496
589
418
514
454
674
501
454
468
696
479
633
316
646
580
410
408
566
602
499
522
373
633
476
474
360
651
467
552
365
523
641
458
501
77
915
376
415
473
618
597
464
500
540
570
702
408
444
695
565
497
436
637
700
542
328
495
465
451
561
382
686
577
573
400
637
559
203
457
235
582
390
490
457
568
572
630
424
629
539
367
246
549
626
493
655
378
703
516
581
435
482
608
448
389
486
588
494
487
592
524
555
518
387
737
607
459
322
662
526
493
519
368
782
516
545
407
605
487
490
280
750
628
535
531
382
768
373
292
729
457
650
449
455
441
671
590
403
71
914
437
471
489
622
457
652
289
510
564
634
440
436
652
573
503
423
607
535
440
562
438
638
575
444
560
686
483
635
261
657
630
487
374
497
630
539
474
468
589
489
524
567
527
721
437
270
491
591
518
407
444
676
485
470
407
699
519
503
412
516
655
500
483
467
592
547
494
357
535
827
495
457
434
613
476
435
474
628
609
481
523
641
420
586
345
691
782
526
464
427
514
495
628
289
699
533
422
385
426
651
497
472
427
594
672
282
333
678
543
468
74
587
425
557
500
526
477
699
384
375
744
471
463
421
537
593
532
491
516
759
484
339
658
603
520
601
293
492
595
533
465
494
640
613
508
441
674
635
474
360
443
908
376
467
499
510
780
386
406
684
560
399
432
466
691
563
491
525
628
536
409
448
628
510
449
392
530
625
452
523
516
544
500
543
425
585
397
383
664
401
609
487
415
450
629
549
552
370
750
449
365
643
517
490
527
522
433
498
540
542
476
543
619
476
513
459
624
464
562
412
698
364
483
392
567
492
644
38
546
613
432
580
451
657
503
467
440
635
496
448
472
587
609
583
334
505
648
546
422
448
550
504
573
666
493
674
536
469
390
590
531
594
374
759
486
443
387
531
518
657
486
486
641
510
441
525
596
504
565
211
696
451
740
450
378
664
461
479
364
630
481
484
216
535
690
546
461
648
596
496
518
345
645
700
432
430
621
612
447
504
415
714
523
482
392
558
501
522
267
517
648
584
463
622
641
500
554
356
547
454
499
425
643
692
648
485
407
626
517
427
490
731
492
511
14
558
912
585
526
683
693
604
399
464
562
557
448
415
679
543
475
474
410
673
526
394
621
593
601
482
324
533
529
489
607
463
629
540
426
538
638
470
567
380
602
503
739
475
425
1019
474
489
224
576
546
511
396
571
579
482
442
399
696
494
369
733
578
586
466
530
455
542
432
321
670
637
500
497
407
558
588
436
353
641
577
512
462
443
696
487
611
418
630
583
500
276
541
666
522
498
394
697
482
484
530
630
503
469
482
465
615
481
551
464
549
623
460
436
580
564
472
434
592
613
487
505
503
619
496
566
398
605
546
438
408
484
752
490
431
508
632
513
402
342
743
622
355
494
538
571
469
518
468
530
658
516
330
740
496
467
463
544
675
530
451
478
643
502
423
495
571
459
602
452
509
571
501
415
363
534
522
591
406
745
529
522
271
649
663
493
461
448
620
455
443
458
632
489
567
272
465
636
627
418
516
660
502
319
445
610
555
565
410
639
664
430
538
462
613
521
496
441
537
656
420
453
507
603
386
487
426
781
474
641
467
755
454
503
357
521
677
458
505
357
717
478
513
458
614
552
454
405
570
494
583
420
482
660
517
498
398
670
524
490
378
700
626
510
378
524
658
494
403
419
546
634
482
362
637
554
462
434
525
530
556
454
443
651
638
491
420
642
663
502
391
642
531
500
481
497
618
631
456
444
590
673
493
465
472
671
501
506
464
653
640
437
481
516
633
503
374
515
623
546
456
469
667
439
464
426
698
622
613
458
525
493
578
298
512
740
523
554
302
530
676
531
371
613
601
487
391
413
577
545
432
524
560
520
581
394
498
623
496
495
458
601
651
478
446
439
479
404
602
543
593
480
538
288
565
479
453
460
480
749
551
445
554
577
672
505
463
775
493
497
309
521
879
448
400
569
744
494
454
531
617
562
435
383
493
589
505
436
489
626
536
469
476
639
525
550
300
517
645
581
438
541
561
560
464
402
624
614
470
405
548
695
590
401
501
569
545
524
452
596
611
446
463
603
561
595
399
549
630
489
484
444
643
511
441
471
1023
474
542
652
394
521
519
451
423
762
511
469
400
469
676
485
546
497
645
415
534
532
697
493
497
343
529
668
464
473
489
604
478
631
286
815
565
403
562
488
775
468
499
455
623
491
449
340
692
493
695
334
552
494
693
166
488
798
739
521
352
500
593
916
381
527
607
476
436
508
753
491
510
492
668
485
454
367
560
635
550
378
514
610
535
479
436
635
634
549
270
699
612
410
520
429
665
400
479
360
734
463
594
122
612
515
559
429
432
643
481
548
392
636
574
489
537
523
614
551
452
362
676
482
449
538
659
517
629
468
603
512
468
573
396
667
405
699
412
681
495
562
290
573
515
722
448
483
579
467
517
229
698
546
381
545
579
513
477
453
441
686
530
492
437
611
554
497
291
651
638
462
672
386
676
544
486
453
663
449
580
107
753
390
550
461
528
679
591
719
416
706
500
551
217
557
479
594
375
759
623
607
481
340
612
570
474
368
698
547
508
449
478
605
521
495
471
650
547
467
546
556
489
502
460
483
616
624
460
393
692
552
454
442
555
548
600
398
487
540
533
487
376
574
758
381
250
550
520
492
214
593
631
531
563
356
700
574
437
472
535
617
457
403
584
569
523
576
477
614
549
506
309
466
612
410
415
429
624
581
386
289
699
696
297
441
569
511
469
385
442
663
481
529
353
649
664
549
398
547
600
423
379
455
594
476
491
259
683
497
497
306
661
449
507
506
460
655
628
374
507
546
539
424
563
576
405
559
525
451
732
481
490
408
664
525
507
390
544
513
495
544
468
746
416
463
622
572
532
515
437
438
664
492
422
469
731
470
513
338
643
564
471
400
552
510
552
454
459
633
620
408
466
555
600
510
354
583
684
442
434
477
666
475
480
632
445
612
404
442
543
693
456
520
490
538
597
438
400
686
492
489
311
501
554
465
633
487
680
536
395
716
569
454
559
292
535
540
621
473
562
627
511
351
385
587
667
418
456
569
519
465
520
464
673
542
442
426
672
552
519
422
627
540
442
391
656
510
594
457
415
608
651
509
417
563
695
412
430
572
638
534
430
518
555
513
491
358
596
581
541
588
454
677
489
423
404
630
537
528
459
620
614
417
465
479
608
488
521
450
649
490
514
179
622
669
488
457
517
746
557
437
436
622
461
559
364
557
557
516
450
469
636
594
390
443
629
528
434
431
598
607
503
407
465
609
504
472
447
621
492
474
290
733
545
485
513
495
547
573
447
477
618
555
478
420
507
651
486
317
441
763
436
533
460
664
500
469
409
567
672
472
555
326
662
697
455
514
552
545
421
164
691
644
530
557
516
578
360
699
423
623
517
473
245
698
571
535
465
516
538
501
482
355
753
515
468
358
527
691
496
449
515
660
481
447
582
622
580
480
384
519
663
416
527
492
644
504
468
445
615
425
566
415
608
513
606
526
462
652
479
477
136
708
534
534
454
509
618
601
351
491
573
683
483
367
748
423
517
362
576
622
454
460
505
733
475
413
692
381
699
444
386
523
624
463
433
466
598
566
500
430
520
423
616
281
555
552
582
580
407
720
493
446
509
659
435
525
490
505
552
612
418
564
597
565
471
325
689
521
352
493
424
686
528
345
350
698
461
524
379
575
601
519
301
590
611
504
461
603
633
460
444
382
574
449
595
395
737
614
537
446
289
605
374
474
318
793
439
459
435
529
611
443
486
463
862
300
448
453
519
483
515
329
511
701
545
334
448
629
631
378
575
514
515
367
551
455
546
452
529
732
519
483
582
442
525
491
356
399
667
531
549
572
315
594
578
540
451
557
753
421
529
331
579
658
294
571
571
624
484
260
657
487
542
429
584
538
562
412
461
811
468
511
468
469
697
488
523
500
595
741
424
436
584
747
405
101
1023
534
461
448
529
556
456
479
466
598
527
520
354
498
583
403
457
478
628
463
521
493
717
463
515
313
698
647
448
401
504
701
451
464
531
599
530
440
652
501
432
494
29
566
627
411
524
404
686
480
510
359
576
498
649
316
532
605
485
369
558
687
445
642
384
560
558
502
326
632
624
519
453
443
647
634
519
424
572
500
701
504
501
779
532
349
462
719
271
903
297
579
667
371
344
511
605
482
547
517
615
499
494
368
559
463
550
563
400
728
502
451
485
776
295
616
432
557
707
467
359
456
684
469
682
483
642
486
489
336
535
772
477
374
472
622
605
330
637
597
498
498
433
638
485
486
407
624
688
490
508
450
610
443
615
512
539
666
509
329
574
537
570
431
512
603
523
426
467
569
563
502
407
567
581
511
437
410
709
541
497
380
591
595
459
403
583
676
576
442
453
616
654
446
468
575
581
511
455
434
585
456
634
389
612
559
517
264
541
559
512
365
568
643
485
468
444
709
496
463
309
630
585
464
443
486
633
411
599
402
743
580
501
442
382
631
388
487
481
731
572
443
403
917
468
464
422
743
514
514
413
510
627
491
474
442
638
613
469
283
703
555
490
443
462
624
491
467
444
697
624
525
452
464
603
486
420
464
649
457
486
498
546
566
623
328
486
623
441
407
512
650
471
470
479
670
486
531
463
554
602
503
460
502
717
518
480
524
645
491
482
421
550
686
479
488
466
559
512
439
673
585
527
539
361
530
602
484
399
619
623
686
439
443
648
627
613
352
645
654
446
15
610
483
415
571
477
653
511
647
235
499
605
373
510
449
573
604
286
458
646
496
452
368
527
550
608
494
475
563
437
482
430
781
413
779
237
472
606
638
171
767
509
485
446
435
771
496
445
485
522
585
527
432
475
698
392
469
399
629
491
484
416
463
690
483
491
539
761
519
460
474
622
508
443
512
499
588
558
576
433
607
489
483
511
555
612
483
223
660
498
481
372
492
552
683
436
472
889
470
510
409
494
625
508
460
502
675
477
431
460
538
504
646
452
531
718
524
355
476
740
483
530
470
517
686
452
447
509
668
593
516
431
568
535
445
476
573
571
472
345
531
530
634
436
543
616
619
435
340
780
494
492
392
593
563
456
454
466
723
495
536
334
660
536
412
446
523
615
564
421
466
801
469
477
407
555
575
422
291
620
684
527
501
459
653
495
450
434
623
588
464
418
514
578
505
416
459
604
522
665
347
577
808
368
484
516
675
494
491
490
682
597
352
185
597
263
258
445
467
751
490
624
475
662
469
483
409
607
691
276
462
466
643
682
556
389
700
492
464
424
658
584
566
424
354
655
479
535
476
602
488
493
399
652
529
528
420
474
739
465
451
537
574
530
467
471
523
740
457
459
235
629
557
469
473
662
507
660
133
685
404
609
416
509
657
528
395
461
602
475
536
508
638
629
449
523
484
646
497
572
563
566
549
513
355
649
508
498
465
426
752
484
496
448
664
535
467
449
601
590
505
401
581
614
468
450
474
677
527
531
400
683
526
496
426
464
629
489
481
463
603
551
487
338
653
529
469
407
470
582
499
451
415
596
538
476
484
553
497
516
353
482
626
529
485
492
573
578
462
475
551
535
586
407
466
794
398
647
330
721
556
506
449
513
613
511
473
467
695
455
501
473
662
507
556
384
671
525
567
418
463
733
470
344
485
698
471
480
404
540
545
496
360
495
600
610
473
451
633
512
487
349
575
647
444
478
460
689
502
468
414
740
515
475
456
484
730
469
434
480
633
520
455
422
640
546
519
422
541
613
481
480
495
610
462
620
403
741
511
506
332
499
684
496
482
482
669
602
464
405
669
542
460
424
545
646
484
474
465
661
470
661
361
667
546
509
417
583
528
556
481
476
647
557
478
436
710
490
475
400
499
577
449
515
487
614
515
470
463
659
540
497
378
517
574
547
466
487
602
456
507
402
612
620
530
350
560
541
505
552
448
634
510
463
446
582
630
471
399
576
554
555
467
503
765
534
494
428
592
537
431
517
546
671
606
454
485
585
482
414
495
636
460
646
322
504
600
488
531
432
637
506
428
462
609
476
559
487
509
612
482
459
493
686
518
471
440
647
648
432
358
639
611
353
772
453
492
559
555
409
512
685
599
497
604
640
580
444
472
521
599
412
410
779
607
493
400
586
630
535
621
437
674
517
468
381
512
522
628
370
636
567
398
635
375
674
502
475
480
539
590
562
433
544
639
504
493
403
693
594
462
414
729
548
485
445
537
582
497
533
522
599
582
501
416
537
498
545
440
590
604
610
446
430
535
644
517
426
556
682
444
319
498
689
461
484
438
596
534
462
263
686
584
436
464
517
615
472
507
395
671
548
471
493
509
698
516
457
569
538
529
716
177
883
505
318
528
440
502
492
357
513
698
490
421
493
624
520
504
420
586
588
503
434
385
737
594
470
447
633
782
291
394
653
448
627
318
463
698
469
477
414
648
498
464
520
517
632
513
489
414
735
459
478
672
494
446
590
305
542
562
456
448
472
600
495
506
430
639
562
379
445
530
686
455
371
502
852
459
426
446
617
500
427
415
599
687
410
463
540
629
525
461
389
678
563
494
428
563
686
461
608
464
624
520
483
408
704
493
476
504
492
494
671
386
431
692
453
444
504
614
506
713
322
549
615
463
357
561
560
678
454
464
484
871
373
378
587
609
471
381
483
538
599
787
278
745
581
400
442
557
596
511
455
504
579
529
452
461
683
533
412
429
487
587
500
484
521
801
507
476
514
712
495
462
475
601
584
488
420
438
700
465
457
402
636
698
441
378
612
546
529
483
483
661
673
474
452
722
482
423
534
420
751
445
485
541
608
468
431
494
643
582
507
424
638
518
547
505
448
663
476
517
445
646
496
441
372
605
528
501
478
515
569
520
502
442
582
509
467
481
486
606
505
632
342
646
551
510
447
799
496
527
364
560
618
443
452
468
698
481
532
494
619
497
623
376
463
1023
431
566
613
506
555
612
477
640
491
548
288
666
508
403
621
432
567
693
278
543
621
458
570
407
463
618
413
458
468
479
509
387
546
522
468
340
578
431
784
728
397
394
669
693
449
402
744
595
621
254
556
807
644
354
529
591
422
571
169
699
239
800
332
515
495
452
746
178
503
590
589
465
619
404
684
385
548
628
606
545
661
497
578
391
490
773
560
437
179
594
1012
454
407
411
684
473
369
534
595
521
624
320
498
595
517
464
471
675
439
638
515
763
543
586
245
479
652
414
529
489
698
320
603
662
649
579
461
358
524
664
509
407
648
603
589
295
666
485
641
534
272
692
546
411
590
413
582
634
420
655
506
698
467
398
477
773
474
425
627
604
402
562
332
561
556
495
408
547
601
475
482
493
607
623
460
377
531
524
508
445
476
620
428
502
405
726
496
452
333
696
639
435
428
524
603
468
455
613
501
649
463
473
493
672
425
330
578
652
438
506
352
696
547
471
473
502
552
451
455
472
673
528
491
587
621
485
521
312
535
595
489
442
503
553
479
446
472
697
481
501
202
680
561
507
440
479
522
686
442
436
686
505
501
288
538
673
449
480
494
596
676
449
427
624
700
392
552
510
614
480
517
492
520
548
490
311
695
477
461
467
503
678
452
438
501
628
536
458
523
584
614
447
358
587
639
0
522
357
590
454
467
769
695
699
596
409
206
511
213
634
528
605
691
525
395
614
353
534
404
656
494
811
451
510
506
549
506
459
695
562
503
388
478
505
232
554
449
671
645
483
465
627
465
527
461
512
667
165
552
308
696
644
614
567
668
474
403
373
519
636
500
543
510
541
687
428
425
660
506
474
456
494
593
499
443
497
671
326
601
305
805
745
490
454
525
578
572
433
468
590
717
402
467
590
631
472
280
575
665
492
491
453
655
666
400
496
587
517
505
339
625
573
493
493
474
605
496
528
327
700
460
651
530
527
626
527
403
460
538
696
452
451
654
452
518
448
481
697
702
342
395
638
504
461
441
748
458
510
407
555
668
489
461
402
739
361
559
429
648
574
469
423
523
690
624
409
565
591
496
461
397
625
481
519
408
642
588
523
401
400
670
525
64
390
503
728
556
446
725
652
466
266
502
784
510
529
310
689
606
424
340
759
629
483
353
504
537
733
304
577
507
698
445
474
389
681
420
455
548
527
661
356
436
622
506
483
560
516
687
518
422
416
718
299
741
263
758
516
445
530
463
633
456
483
491
524
566
479
151
767
501
460
338
564
649
494
502
455
628
475
544
442
396
769
457
381
506
612
635
487
555
599
581
699
373
594
479
516
322
478
649
655
448
433
646
569
455
386
540
600
473
386
459
697
437
524
391
608
488
438
401
699
559
504
387
568
620
499
443
453
683
511
451
488
520
611
401
478
479
630
645
432
468
569
510
473
406
545
692
465
403
477
635
628
415
569
607
553
486
393
516
585
503
460
484
563
534
457
356
612
533
478
393
500
533
614
460
493
595
530
479
377
696
512
534
408
537
583
479
453
488
560
528
374
590
644
533
503
449
544
581
472
472
516
508
715
468
469
681
475
606
247
610
682
498
449
447
629
532
518
548
725
507
456
454
459
587
614
440
512
577
508
513
450
671
526
543
457
507
588
477
470
445
680
526
475
483
748
463
418
352
586
543
506
479
566
478
616
504
438
697
529
499
367
504
705
560
482
498
644
468
464
474
749
525
603
431
504
618
538
506
522
562
497
472
329
554
539
466
431
513
616
469
520
458
629
620
491
354
646
634
493
284
571
585
498
441
540
616
548
494
398
655
555
448
317
602
668
573
469
430
663
603
420
542
620
564
531
348
468
902
495
423
497
747
497
481
410
597
673
473
427
604
574
708
331
593
606
607
467
387
584
581
456
490
482
635
512
448
473
692
528
481
393
658
569
465
415
547
542
518
539
449
612
499
468
409
640
519
470
498
465
606
508
440
451
672
498
481
447
585
583
453
430
498
601
598
463
475
646
545
469
367
643
544
505
389
596
681
509
449
393
678
548
467
499
688
573
518
473
345
925
446
453
521
618
495
505
422
593
691
479
411
514
603
569
433
473
634
627
468
442
677
596
475
507
456
779
582
444
474
541
572
438
404
613
575
415
435
634
562
623
446
262
572
482
464
438
639
555
453
470
386
697
610
403
508
698
617
445
384
699
551
459
379
500
708
612
437
431
664
504
413
369
482
791
533
407
578
683
470
265
357
851
728
499
495
626
531
379
308
495
624
619
483
451
699
496
488
403
593
490
491
416
451
559
622
551
166
841
417
508
275
579
510
518
330
465
628
527
492
372
601
507
550
392
556
547
590
417
492
640
514
543
506
529
642
451
413
611
613
380
438
382
682
482
520
526
542
510
358
486
473
633
502
468
477
597
452
400
598
643
517
513
420
546
547
422
507
475
689
463
577
414
547
497
425
484
563
560
555
479
443
677
520
473
436
638
517
464
509
517
593
522
461
473
607
539
463
446
672
526
511
369
584
581
506
474
350
696
460
430
444
654
506
489
529
528
610
534
465
454
556
508
474
441
643
568
494
377
572
557
542
483
477
649
472
416
492
540
520
511
518
501
589
464
345
480
593
527
503
418
719
515
437
477
528
618
627
481
457
691
494
528
388
674
518
482
463
551
623
460
606
461
618
549
445
465
633
505
562
374
538
638
504
479
481
545
537
464
396
641
508
488
302
713
562
555
462
449
699
451
577
354
683
557
400
456
537
584
484
458
528
528
565
522
449
622
643
461
489
515
622
491
455
448
681
590
570
424
582
687
407
452
495
634
503
488
451
597
480
506
485
498
622
535
387
637
658
510
410
499
635
501
478
496
511
496
533
416
520
686
471
463
417
605
501
597
374
746
625
482
438
441
699
503
518
367
718
817
374
526
652
505
476
232
578
454
775
500
457
732
385
501
261
716
593
729
454
569
548
548
525
450
656
442
688
363
498
462
544
244
579
670
624
421
471
520
530
426
429
693
522
478
457
471
745
494
449
570
557
511
462
408
621
723
337
457
591
549
563
451
546
640
510
483
279
604
711
361
495
550
650
594
407
480
549
580
502
314
654
581
461
378
583
533
664
455
451
696
533
451
407
556
618
501
335
500
685
502
527
434
603
485
623
269
665
640
509
411
437
608
474
508
500
596
471
653
464
563
579
512
452
567
599
516
552
328
689
558
461
393
503
624
471
372
486
595
524
561
414
562
466
451
471
485
581
527
499
465
646
519
482
415
616
528
506
473
539
640
515
394
506
641
515
439
466
618
522
398
523
454
650
455
494
427
631
403
688
469
506
688
462
356
589
613
470
587
425
633
629
453
398
756
434
452
275
518
645
507
407
528
797
351
519
441
628
648
461
424
622
650
497
466
669
543
599
477
460
557
568
521
309
698
584
450
567
455
578
495
401
367
766
525
477
397
533
607
510
431
441
697
461
503
466
667
556
470
388
472
896
452
467
394
726
434
491
341
721
548
459
584
518
570
506
384
501
614
539
482
461
547
575
465
400
532
663
502
489
473
665
542
453
370
679
500
486
381
540
562
523
453
506
631
556
461
372
568
667
466
449
449
719
477
468
461
655
458
478
640
489
697
495
381
567
586
451
414
581
544
616
446
391
697
486
622
386
518
691
596
420
506
566
607
520
315
717
515
462
383
526
670
476
460
435
692
421
507
476
663
563
514
561
391
650
600
403
432
698
634
477
403
698
507
402
397
534
741
490
458
407
722
473
478
394
637
533
526
395
538
669
549
470
469
586
505
658
405
556
707
393
479
462
660
500
485
473
672
523
483
497
550
575
445
448
535
674
493
398
569
697
544
495
407
529
494
530
378
495
591
570
466
432
693
484
559
367
552
719
427
455
479
695
506
438
461
614
516
472
502
487
557
525
477
490
555
523
448
476
569
553
447
457
480
642
439
473
516
624
574
469
438
646
489
571
362
623
543
504
423
483
651
540
476
473
602
508
409
586
535
587
561
357
483
617
492
438
551
694
479
533
396
548
572
475
429
544
597
493
474
480
617
671
506
415
496
640
467
350
525
633
532
433
570
542
670
434
455
568
567
492
421
499
616
492
511
455
665
575
471
302
721
527
455
564
482
791
487
502
514
625
575
452
426
511
618
462
458
543
559
552
498
426
658
472
529
338
548
630
503
408
481
585
572
457
529
567
532
449
447
540
567
520
466
407
756
576
479
438
672
621
384
520
484
614
527
693
420
525
445
576
378
665
545
494
356
524
534
442
533
506
596
509
470
491
570
539
484
348
631
486
574
428
503
550
527
531
603
609
613
654
475
563
536
485
0
546
207
589
456
526
671
555
484
469
555
535
492
639
624
698
523
487
391
617
494
611
449
537
690
452
473
415
680
566
459
438
0
546
490
379
517
626
544
453
448
635
524
491
357
745
516
515
454
513
610
411
383
509
550
510
544
408
561
636
430
349
574
621
500
492
450
695
543
467
395
626
559
607
509
657
590
490
428
436
869
549
451
469
547
499
519
180
610
556
472
598
475
581
573
492
418
592
530
478
426
509
684
470
474
480
519
698
450
405
561
549
486
371
406
732
564
433
557
628
592
413
381
541
696
464
384
531
600
491
0
599
278
584
500
487
186
585
554
450
156
669
516
459
450
636
540
456
408
576
505
450
483
469
614
596
484
564
840
482
437
574
611
637
469
387
490
654
470
522
362
649
520
628
433
580
548
548
369
535
674
470
503
446
613
548
491
440
543
500
483
418
567
668
498
450
451
613
504
639
499
644
581
536
358
607
602
612
441
439
507
694
662
471
839
505
773
289
510
639
526
790
507
667
466
648
331
575
547
532
453
479
648
484
446
454
641
536
510
484
396
202
314
724
920
122
585
605
417
535
529
757
397
698
637
399
389
53
666
99
661
153
701
557
571
472
670
536
543
325
278
757
534
338
559
608
446
615
484
548
547
543
457
486
622
481
545
409
735
509
468
379
614
569
519
381
591
568
553
519
478
649
477
574
323
733
489
493
423
628
610
521
466
422
590
482
463
518
589
614
504
486
437
677
497
366
495
416
559
470
440
551
493
556
380
240
936
207
627
336
722
452
345
606
316
620
545
398
475
814
460
452
473
678
488
427
338
532
656
549
400
559
676
508
496
568
684
837
443
766
364
758
518
341
531
735
399
483
621
624
632
534
43
770
339
1023
356
568
660
549
317
402
254
1018
516
485
561
511
680
156
396
1012
375
497
373
411
704
593
370
624
633
505
544
441
653
497
447
498
538
639
553
349
796
521
350
667
630
587
600
467
313
664
456
446
341
734
629
659
534
404
613
562
498
474
649
697
565
79
776
526
640
524
264
783
467
393
588
608
564
549
349
517
617
500
400
487
585
293
908
466
503
690
519
435
531
552
454
491
526
767
323
677
322
626
442
543
365
564
587
551
371
555
648
513
489
468
518
698
448
491
551
756
660
437
477
596
631
465
567
575
559
451
594
594
694
487
458
549
736
508
480
418
673
491
526
311
562
865
335
748
384
615
541
533
222
822
586
525
468
542
535
623
349
528
706
610
467
413
582
563
410
538
475
692
562
401
613
587
414
739
475
783
583
482
378
448
744
432
499
530
662
458
520
557
673
610
512
451
464
569
727
303
516
584
503
426
344
620
537
595
442
408
654
562
460
422
604
549
425
362
494
480
486
602
483
742
571
477
443
550
494
640
332
559
600
556
647
488
678
520
501
426
509
493
552
350
532
536
551
327
579
721
425
625
418
564
617
460
323
726
513
581
448
432
581
508
660
415
700
524
548
318
553
498
558
385
364
786
446
462
519
617
481
628
437
486
639
309
315
699
883
459
476
500
538
533
461
472
536
669
444
81
676
790
391
538
733
622
470
459
364
550
657
409
443
637
698
505
438
521
574
422
422
528
544
570
598
398
468
668
448
503
351
657
457
516
371
499
821
462
335
709
651
463
577
423
634
561
452
359
503
644
489
444
519
577
551
426
565
637
503
421
538
563
507
478
455
466
655
541
472
475
691
495
513
392
477
684
530
418
477
613
535
323
644
697
522
437
400
596
581
424
488
404
590
570
543
367
615
489
497
547
487
617
521
338
525
651
456
615
415
809
470
409
448
608
504
632
544
470
607
536
504
444
504
557
553
308
771
489
673
523
602
634
511
472
394
632
532
514
442
596
576
509
492
480
623
506
446
509
564
781
431
539
548
584
516
492
454
588
597
571
468
604
716
464
397
560
648
473
455
459
615
566
545
464
547
539
405
325
682
576
499
425
567
565
469
477
485
591
493
625
368
540
625
502
405
493
670
462
472
498
596
626
317
418
471
795
502
484
480
554
496
517
445
599
615
465
440
516
641
517
424
565
700
468
569
481
532
636
421
438
537
592
455
510
540
565
612
470
410
591
478
596
370
636
617
492
495
467
594
344
621
481
639
598
501
420
419
587
667
439
535
631
407
459
460
631
494
493
345
536
585
498
517
368
698
634
441
412
635
569
463
341
569
585
536
526
572
577
642
495
340
647
526
524
416
534
630
496
496
455
739
495
492
420
553
530
497
391
518
646
469
482
311
732
550
516
454
570
627
392
379
463
699
458
561
408
676
530
464
374
675
557
480
396
574
615
449
554
455
619
497
459
376
547
551
479
384
482
600
557
486
531
664
475
530
370
534
644
465
382
695
627
486
462
507
633
499
533
489
510
518
621
399
524
587
497
469
497
595
626
443
450
622
536
495
439
434
765
523
445
446
699
544
475
409
557
542
480
409
527
605
634
367
645
590
545
506
415
596
649
484
449
518
638
529
404
472
672
495
457
424
573
575
492
427
456
708
510
473
457
625
538
472
465
499
546
558
412
377
602
533
534
419
623
482
650
309
703
553
507
356
527
579
506
504
460
566
527
492
410
635
612
504
451
436
593
637
465
446
602
535
546
346
526
606
514
435
463
562
683
472
417
664
538
504
341
522
580
601
437
501
616
471
524
444
611
524
423
411
696
753
509
587
519
555
651
425
436
653
549
490
466
490
593
516
477
496
633
521
255
736
700
484
475
493
499
486
483
475
313
711
598
534
311
669
438
392
454
671
564
425
495
304
833
809
397
479
707
428
540
482
398
538
427
427
349
578
446
760
268
704
574
478
445
509
611
513
488
495
590
552
493
423
613
489
638
476
457
679
485
489
484
542
382
504
522
698
489
528
265
688
536
438
469
496
595
415
562
454
507
655
652
368
483
539
602
292
561
576
553
369
538
699
551
538
458
511
465
396
728
378
554
631
394
394
493
480
661
226
664
598
584
523
620
542
626
366
427
762
488
576
376
618
688
474
335
649
530
536
392
432
673
782
401
330
496
626
478
457
434
569
495
213
543
512
569
453
441
460
699
476
591
418
612
618
453
522
653
510
565
517
435
726
406
507
365
671
472
382
490
725
518
506
417
410
857
472
488
506
559
543
604
220
556
560
509
276
535
776
649
303
725
506
712
472
397
573
555
511
547
379
815
486
443
394
643
457
525
377
569
491
927
280
458
693
479
435
506
603
503
529
489
435
728
479
378
463
633
480
510
426
659
515
497
329
599
550
590
462
372
741
436
412
538
616
681
492
522
449
1023
382
423
412
754
433
435
435
655
479
560
348
699
650
449
483
588
587
494
450
484
693
467
506
251
646
622
454
441
400
646
415
636
333
625
568
415
351
834
432
489
443
508
494
505
484
354
616
660
479
351
461
524
631
439
558
664
427
676
438
655
535
484
326
753
476
492
595
453
542
464
540
505
541
485
650
361
621
625
469
599
425
623
545
534
418
652
666
443
368
640
518
487
441
510
668
444
504
446
685
561
350
750
611
559
534
465
535
528
519
504
499
625
538
435
434
560
510
588
432
409
793
725
407
446
629
613
406
453
496
677
405
472
517
499
579
398
522
642
509
470
384
578
591
501
491
405
672
453
518
416
615
428
723
295
582
670
483
555
434
564
516
493
459
627
537
457
456
563
570
505
337
679
581
516
456
533
648
502
495
388
545
617
543
476
491
625
458
575
378
699
588
513
385
523
593
501
480
482
614
524
450
451
647
610
508
436
534
621
525
457
473
675
503
413
456
544
579
510
408
565
575
441
408
600
567
507
712
319
623
528
495
376
512
650
493
416
646
571
530
474
487
606
532
474
446
627
666
510
482
617
636
498
412
571
575
542
478
445
516
671
431
611
412
682
542
500
462
565
521
506
392
503
629
455
504
542
579
570
522
337
561
616
428
424
559
588
485
680
344
827
608
379
502
609
541
433
301
387
811
418
502
536
764
486
428
416
667
546
465
407
480
670
599
570
462
651
497
476
359
702
518
498
583
322
1023
370
501
502
597
608
469
412
613
614
545
354
472
681
475
483
409
784
447
486
409
537
573
419
317
523
610
490
254
570
598
470
473
432
464
547
659
364
447
663
344
623
368
556
598
479
605
536
618
473
441
483
533
715
629
699
611
477
508
237
565
564
307
517
544
640
615
397
734
514
476
557
303
454
538
595
425
493
755
458
464
480
491
625
282
662
611
478
794
246
386
947
420
444
470
896
449
384
540
502
805
430
376
484
558
473
436
570
699
473
496
357
616
719
482
382
602
691
486
456
402
683
519
471
455
554
630
522
404
669
547
619
447
556
708
613
506
417
523
567
451
413
538
617
559
457
413
550
662
487
241
758
505
459
645
500
650
437
538
449
542
564
422
410
698
566
662
390
454
589
480
450
439
639
513
536
386
505
925
457
431
502
571
644
422
583
726
560
497
399
492
575
535
629
481
699
530
526
406
598
549
474
359
634
496
509
391
505
628
560
512
532
477
1023
274
450
611
450
720
473
460
697
551
428
458
531
574
441
429
565
555
516
433
438
661
518
494
418
663
459
498
411
545
623
507
505
437
563
528
478
370
640
513
516
286
541
621
491
492
493
637
637
439
395
628
662
526
399
503
627
648
465
450
611
597
496
478
481
682
461
405
490
696
482
493
364
668
617
480
504
562
518
559
368
511
718
592
393
465
535
570
396
466
631
518
505
415
504
619
497
391
631
626
515
460
552
503
555
424
395
493
635
544
425
570
574
573
498
382
612
533
499
375
527
627
513
454
480
819
534
512
401
625
556
429
436
429
797
469
445
469
621
638
462
435
490
730
343
478
491
648
636
450
452
542
548
510
406
622
572
449
403
505
723
482
447
476
625
476
533
437
572
465
560
485
447
630
647
329
379
689
418
429
458
541
571
296
543
318
817
553
518
340
603
469
601
300
614
641
560
293
463
637
523
365
519
772
492
500
448
596
529
417
354
502
640
684
430
594
629
512
603
464
529
545
490
470
501
690
558
493
349
657
602
469
401
581
620
604
322
664
619
648
451
439
590
535
466
284
562
658
553
389
490
615
451
498
460
654
521
404
434
567
572
506
429
491
580
652
375
570
679
483
551
373
544
638
497
438
520
620
537
398
551
587
511
484
433
561
595
470
450
487
621
560
508
372
647
582
426
518
648
545
492
457
456
615
496
461
478
642
499
487
373
533
675
472
384
478
626
458
426
440
613
568
584
300
556
698
494
440
487
592
504
481
452
628
500
494
430
533
638
484
464
475
615
557
499
485
586
542
504
388
558
628
464
477
534
516
692
461
541
668
553
502
487
502
610
476
504
463
660
531
507
332
590
505
542
392
534
718
466
436
490
541
541
716
359
636
529
600
308
572
658
482
515
501
545
525
450
535
549
611
496
463
542
561
510
476
475
629
487
589
399
678
540
473
470
538
594
453
741
329
694
505
438
430
565
580
478
416
552
712
511
457
463
621
629
457
415
593
631
455
468
525
589
518
501
446
565
488
463
581
555
660
478
428
455
659
506
494
450
630
548
476
399
608
599
498
452
395
681
635
428
640
635
427
517
374
511
539
488
419
469
681
519
469
414
651
509
469
418
605
502
524
401
495
629
529
370
538
539
597
465
459
563
604
498
441
509
616
536
445
431
653
429
800
297
673
613
503
415
441
583
772
413
485
673
473
407
468
536
690
491
331
615
584
540
457
471
623
530
435
467
550
558
537
399
483
627
567
479
475
820
490
539
468
504
603
488
339
487
646
482
535
476
732
605
405
515
581
564
537
394
511
643
493
456
358
570
572
469
450
614
575
473
438
440
669
517
423
452
695
495
497
412
533
631
480
432
483
664
559
458
494
631
535
488
309
659
574
487
437
490
619
515
470
483
615
573
430
388
566
599
465
329
707
562
537
473
460
690
495
387
484
535
582
546
427
482
589
458
678
421
626
557
487
364
588
535
577
351
578
612
538
472
457
552
656
485
329
634
638
453
609
437
671
527
517
350
604
581
427
502
619
545
584
376
473
634
550
473
497
606
502
489
404
555
609
506
451
493
641
489
616
396
669
529
481
359
601
567
521
521
472
646
484
487
464
645
503
663
353
535
641
448
416
487
620
459
564
517
581
570
505
410
552
549
620
451
465
664
468
508
435
637
532
504
412
551
645
549
475
460
616
443
555
356
740
502
0
220
28
796
0
683
0
1023
509
844
444
0
685
471
434
579
590
506
457
431
854
113
454
493
595
558
456
422
538
551
513
438
479
637
456
506
446
617
545
493
426
519
667
515
388
580
553
594
458
442
624
527
479
324
601
592
487
445
533
639
490
566
454
628
510
540
382
594
611
573
487
497
617
548
459
431
636
566
490
395
633
610
521
472
70
308
536
688
505
654
686
476
497
492
662
800
0
663
335
634
607
447
498
832
0
604
485
585
498
387
562
649
679
211
561
233
455
185
503
312
718
239
430
359
628
440
612
477
661
513
501
372
460
742
340
529
330
650
456
630
428
567
605
448
507
514
595
642
510
434
550
468
462
512
535
539
541
409
484
735
494
515
486
663
468
512
388
640
601
450
364
557
699
555
462
466
700
647
441
498
550
623
453
385
502
661
448
472
503
579
545
412
492
629
538
513
437
521
642
498
555
536
650
448
516
460
547
609
478
496
427
698
497
505
489
616
548
510
422
461
662
625
384
491
696
386
561
420
567
669
383
582
511
454
500
273
624
840
431
277
530
681
316
452
405
859
642
622
449
461
550
452
425
433
754
543
447
419
509
683
432
410
470
543
456
340
405
533
600
590
480
502
706
345
631
100
896
314
538
354
647
630
351
420
553
464
338
633
451
629
705
308
463
698
552
533
221
842
487
430
463
502
620
510
442
431
567
472
597
116
742
563
515
521
476
566
504
576
544
531
525
491
351
698
558
499
466
504
678
508
450
414
542
597
468
443
671
712
386
496
409
649
522
461
494
535
615
444
435
612
491
653
435
238
763
456
500
444
565
596
407
284
679
601
502
522
508
530
637
430
476
492
581
520
313
657
649
473
462
484
724
478
504
454
713
451
469
495
523
624
553
447
440
649
572
509
431
681
542
482
254
497
762
505
481
517
646
498
383
362
553
556
509
477
581
546
469
413
553
629
519
385
690
580
602
514
478
491
610
492
441
449
640
616
481
461
697
546
448
446
356
637
646
342
430
603
510
341
440
527
545
304
560
565
761
370
541
504
740
729
465
539
545
526
467
404
521
650
506
462
484
638
465
439
366
778
453
608
420
574
506
449
368
506
491
540
521
356
699
502
386
368
527
533
459
592
465
543
545
559
392
561
582
437
478
478
625
558
491
451
750
351
526
434
559
615
411
432
544
579
380
638
369
655
490
475
377
742
524
430
367
578
573
463
531
423
626
452
483
391
640
499
493
391
536
704
436
613
456
609
550
487
371
574
500
516
402
636
628
635
372
544
553
753
439
464
615
557
466
358
507
772
544
444
414
614
482
481
373
651
487
470
411
698
1023
549
409
765
739
769
398
630
555
811
529
798
508
678
483
0
403
522
1023
481
895
883
967
305
330
514
721
511
566
489
598
440
726
416
944
605
767
468
709
600
194
611
49
654
0
1023
0
795
695
684
470
481
652
450
395
504
591
603
461
379
628
106
500
388
539
691
520
412
478
644
533
479
434
631
544
464
321
820
629
606
471
630
791
697
458
482
626
673
497
447
421
699
549
445
469
653
563
420
406
542
705
489
384
587
588
476
479
493
647
531
473
373
597
506
532
400
501
738
451
507
468
585
495
537
299
658
618
475
463
468
673
476
468
438
762
562
460
467
477
726
475
380
507
697
455
654
466
686
543
504
402
535
560
498
436
466
626
442
387
698
571
581
453
385
526
365
0
491
500
879
698
3
641
476
511
520
443
497
596
464
550
500
698
516
610
352
798
494
534
414
551
707
478
417
445
677
507
471
420
580
622
409
430
576
604
471
449
524
565
540
476
539
580
520
491
427
559
620
489
416
556
635
589
500
447
645
500
492
296
681
582
484
576
487
745
486
494
477
603
582
466
314
630
592
482
406
558
573
390
464
452
796
476
493
407
536
564
526
396
557
633
542
427
461
699
482
505
456
606
545
510
469
478
574
587
482
418
635
588
455
453
487
575
538
435
470
564
535
453
329
646
555
478
368
544
576
482
482
