497
641
529
474
402
636
560
498
359
557
656
453
569
460
718
482
493
444
568
649
510
352
479
623
517
397
748
548
545
518
324
702
561
459
343
488
699
503
531
417
728
641
389
531
562
541
480
377
615
680
447
431
473
544
599
459
368
596
691
475
309
565
751
498
535
580
689
501
497
424
565
537
557
363
582
592
446
632
324
615
521
496
414
496
561
487
424
499
639
530
464
469
617
551
445
392
722
522
471
481
600
540
523
455
432
661
557
420
442
687
510
514
314
669
549
651
445
452
608
585
489
404
602
531
494
416
602
635
490
551
389
601
592
467
469
602
529
487
342
621
636
499
626
404
664
579
448
432
538
528
593
307
481
750
493
433
520
515
523
480
526
569
622
451
394
527
571
492
455
439
629
506
455
386
664
587
553
433
511
607
472
462
557
596
528
440
420
569
668
423
373
598
690
491
491
442
493
602
480
411
698
589
474
372
642
619
542
472
465
698
479
491
388
671
506
485
361
508
686
577
392
476
697
476
480
421
582
591
496
410
505
624
476
477
455
659
557
506
596
571
500
736
280
575
643
506
437
541
554
472
500
476
548
698
464
412
520
613
648
420
460
621
478
468
387
695
616
442
418
572
632
494
429
621
610
466
474
367
620
613
459
463
516
574
526
498
447
611
507
565
399
634
562
439
461
514
668
629
437
526
682
463
446
494
657
539
479
418
512
621
555
459
483
641
511
656
401
699
512
530
426
511
606
451
587
443
633
575
464
478
567
511
470
465
523
589
638
422
478
639
493
534
359
744
513
482
418
618
567
587
517
638
560
532
511
416
597
544
467
390
582
645
523
483
490
571
429
613
351
622
534
406
536
516
552
530
470
480
676
529
443
689
658
508
514
441
497
543
507
357
693
546
529
534
409
639
509
519
486
594
559
501
431
429
626
417
518
498
653
518
506
485
577
606
472
572
471
557
511
502
419
696
551
475
361
544
601
479
440
492
646
476
484
405
624
473
597
348
487
600
527
470
456
590
433
490
521
608
543
402
419
493
672
493
478
438
763
479
459
486
676
525
511
540
663
534
516
473
501
502
498
477
504
724
481
609
423
536
587
509
399
508
534
536
613
308
600
601
147
669
457
505
616
490
555
561
501
570
500
654
666
406
111
558
536
381
627
426
592
476
386
426
703
537
452
222
791
623
502
534
453
635
456
676
391
798
456
579
424
494
610
451
455
560
585
750
512
531
902
475
532
324
596
685
542
436
580
354
939
301
472
661
525
422
471
547
625
445
484
489
630
587
455
469
639
473
627
417
656
506
575
435
596
678
497
392
512
683
460
441
563
610
459
552
449
437
703
493
450
427
689
502
532
398
552
640
407
600
521
598
502
515
433
692
552
542
330
657
726
532
443
495
567
520
483
427
698
623
502
372
580
772
411
440
513
609
478
452
540
664
511
481
467
557
558
568
418
497
640
474
486
408
678
570
484
544
533
562
444
428
510
618
521
483
414
567
673
390
477
618
488
602
412
449
788
544
530
415
749
611
492
357
531
461
645
467
454
580
731
425
531
599
698
526
380
520
613
418
463
448
661
486
479
425
688
506
470
434
542
533
410
506
511
673
462
455
514
548
562
318
447
662
621
424
335
623
532
480
525
448
539
501
589
473
534
621
503
405
465
710
515
460
445
607
611
456
287
689
582
475
417
469
639
516
527
396
657
463
377
467
596
666
493
440
401
761
424
461
455
668
579
435
408
640
524
534
503
483
675
470
581
505
569
427
536
404
557
561
504
321
308
975
474
394
599
620
466
532
469
818
439
489
638
312
450
527
427
615
752
512
469
382
567
793
409
548
526
745
129
721
243
528
806
398
446
589
508
489
55
800
500
473
509
568
543
480
482
399
716
551
516
290
506
699
446
567
509
627
461
415
327
582
556
447
318
517
685
619
483
489
466
647
312
512
549
484
412
394
479
729
490
640
313
479
642
489
443
560
565
436
136
742
529
829
502
464
512
813
342
617
648
535
646
101
698
698
468
472
333
980
423
580
517
567
693
185
722
541
561
624
525
344
633
476
431
420
522
481
511
303
586
704
478
399
438
789
487
638
289
939
434
412
258
470
830
355
657
488
696
622
321
403
765
660
484
423
503
749
452
343
491
588
780
394
504
629
413
815
173
736
652
586
461
329
889
408
504
433
564
503
399
523
582
617
526
498
468
661
505
397
410
636
501
633
470
543
624
581
468
573
644
565
509
501
574
426
679
336
642
596
384
590
464
585
526
561
242
823
675
436
345
761
631
438
448
472
595
518
503
367
646
591
492
439
570
666
464
520
378
505
648
393
373
811
527
574
362
616
606
535
458
486
625
515
473
305
593
618
446
528
617
506
562
335
545
614
523
494
467
646
524
429
189
829
501
482
474
496
551
469
418
559
577
672
674
326
509
666
493
328
577
538
556
494
422
697
571
613
344
552
616
557
440
457
593
518
490
438
642
562
461
322
616
483
577
439
456
622
626
556
392
567
538
483
293
590
608
600
312
770
574
622
552
542
511
625
587
343
692
580
457
454
486
630
474
493
428
676
501
449
504
690
346
584
449
480
662
518
446
480
679
478
479
366
644
539
496
490
430
763
411
501
433
645
494
482
642
555
551
495
430
479
562
505
509
481
650
498
600
464
443
696
385
495
506
584
561
531
478
496
566
426
589
459
640
395
497
519
606
489
463
451
626
627
542
448
510
669
477
329
525
705
467
523
383
519
629
459
442
506
625
585
378
464
501
790
369
558
561
631
342
143
579
726
470
452
599
530
550
323
539
683
558
471
342
587
580
483
405
375
889
444
548
526
512
447
806
312
515
584
483
159
475
746
465
658
449
678
639
451
368
620
581
545
366
524
691
453
481
452
642
398
536
381
607
561
392
564
436
757
581
483
363
607
664
372
400
435
748
352
528
547
553
675
507
335
673
584
530
369
633
428
640
327
638
699
435
436
409
623
594
488
469
589
409
705
349
462
669
534
457
335
658
460
495
517
468
680
445
398
538
670
459
493
434
615
552
470
332
558
509
492
471
511
631
494
737
383
573
497
475
463
496
692
360
363
598
509
517
544
467
734
497
507
405
513
532
595
444
509
646
674
299
594
678
567
472
414
632
491
558
262
752
580
535
459
470
517
824
391
483
699
622
468
366
651
591
580
474
442
603
516
425
448
477
687
453
366
535
632
345
475
445
582
523
549
505
579
582
489
427
444
742
421
403
574
697
527
462
460
700
527
468
453
523
626
531
476
376
884
437
474
418
701
546
461
318
524
636
493
455
416
571
601
564
402
682
544
492
346
371
783
412
461
551
714
505
457
457
675
553
483
236
699
557
420
586
452
651
505
485
361
610
591
308
524
394
702
499
478
484
594
455
481
383
558
588
693
214
641
750
353
454
452
554
557
381
576
579
634
457
641
244
580
684
486
433
652
410
497
510
524
600
558
351
483
573
550
394
445
556
606
425
502
580
648
461
582
572
699
519
417
461
654
484
396
596
492
802
397
383
570
612
589
356
507
632
517
534
461
699
481
391
488
723
545
580
467
602
550
639
412
491
630
526
475
689
506
577
689
346
476
509
503
486
347
582
524
539
376
541
646
445
470
460
570
640
385
404
593
609
463
301
623
604
536
267
476
670
456
657
360
657
536
500
369
541
613
479
405
564
576
486
540
372
633
514
477
337
584
543
543
439
503
648
440
587
406
688
531
544
478
522
547
603
467
439
510
698
477
428
696
629
458
336
515
624
537
451
481
586
595
488
459
535
655
453
433
490
671
466
470
464
700
550
526
340
690
588
455
405
615
564
500
441
474
702
504
457
388
800
465
519
405
560
697
450
416
437
643
547
477
396
661
556
467
441
559
631
518
392
477
585
606
455
372
642
556
746
280
626
546
592
353
424
669
519
510
344
672
535
447
438
510
842
490
459
474
635
548
462
321
668
501
635
382
566
541
645
427
503
648
466
483
338
602
540
500
418
555
604
552
406
467
695
491
447
391
741
465
495
514
459
692
464
523
448
634
509
545
357
634
522
505
474
613
723
463
434
476
655
496
459
482
643
486
521
298
648
476
648
257
559
640
549
341
357
821
484
533
542
572
562
475
415
443
698
446
582
431
698
484
460
398
533
719
433
533
420
697
546
399
567
685
509
433
525
541
606
437
398
503
697
461
485
437
644
501
490
458
542
586
516
453
454
635
386
465
468
657
503
486
427
582
532
464
264
613
751
463
497
356
746
475
447
465
604
551
552
278
556
685
436
460
426
710
360
837
196
446
637
481
326
648
696
482
445
651
512
530
431
355
563
549
419
469
455
634
552
410
563
641
450
705
419
484
696
613
312
498
700
453
486
442
740
345
826
212
659
704
493
419
379
634
485
548
455
600
500
689
259
529
878
397
448
369
855
421
437
452
692
515
460
430
588
533
599
317
635
585
534
466
535
674
493
419
426
619
535
541
421
327
699
480
335
598
490
515
471
435
604
528
454
526
386
654
559
356
376
880
320
581
469
609
488
523
272
643
669
515
416
457
619
489
522
404
647
586
501
359
539
641
493
453
589
558
550
452
455
561
717
422
377
576
585
597
345
474
670
562
399
435
585
569
546
340
507
634
559
411
467
634
546
434
455
550
463
653
449
524
638
517
435
475
544
666
506
489
618
644
322
462
475
580
550
470
497
555
557
412
445
594
698
463
416
484
665
459
461
504
615
505
532
429
568
504
472
427
541
594
566
415
528
492
637
481
332
743
527
482
447
494
665
467
437
408
682
471
492
491
623
626
471
479
556
605
532
359
532
671
531
412
538
608
502
435
786
513
697
560
415
454
600
555
467
459
622
547
470
403
505
606
556
446
523
510
505
473
448
650
536
387
375
524
557
761
433
586
565
607
446
362
665
542
380
454
613
546
679
480
545
596
565
432
498
623
540
440
448
508
630
535
433
388
686
458
472
467
690
655
404
353
799
447
534
416
491
604
474
541
416
735
553
492
382
595
544
480
494
490
610
564
582
341
586
588
555
422
437
619
464
499
313
679
463
485
342
681
501
434
324
900
490
486
464
358
699
569
365
449
689
511
487
433
536
608
504
469
572
538
464
514
344
673
490
580
386
562
671
577
427
427
573
496
486
499
686
664
446
411
561
553
523
449
501
565
628
444
418
589
695
535
310
627
590
446
465
470
573
567
449
321
814
615
427
394
562
561
669
487
491
671
566
424
533
508
536
527
469
290
792
418
301
467
763
447
583
541
664
471
621
302
361
809
656
428
520
617
504
448
368
640
571
594
375
590
613
499
483
475
617
240
833
433
675
664
321
380
688
475
490
498
502
546
491
298
454
616
488
548
267
642
574
511
501
644
559
532
480
429
620
660
452
496
507
680
492
427
475
555
632
569
432
724
523
525
231
685
522
581
473
499
595
507
440
563
667
565
490
404
645
512
504
508
438
744
670
372
447
743
498
549
293
618
588
493
451
542
583
532
364
562
594
530
487
408
545
583
639
349
539
557
633
341
407
639
530
568
372
523
635
486
486
478
655
454
539
341
745
503
465
610
501
607
568
282
685
586
486
462
556
581
640
424
482
541
622
525
388
674
514
527
509
441
653
538
568
263
645
592
525
455
422
692
523
447
368
670
588
477
446
565
593
480
456
490
564
506
506
425
783
468
730
300
586
531
514
439
472
640
509
476
478
606
544
455
441
556
452
549
413
466
658
513
472
342
564
496
650
281
646
545
418
506
457
636
476
630
411
671
520
517
326
538
691
469
418
541
620
498
543
426
565
473
534
381
562
620
480
425
503
684
477
402
506
502
620
466
413
588
600
402
462
501
637
511
476
447
751
540
553
409
567
542
552
296
575
773
503
444
440
574
476
444
388
699
533
652
370
378
652
508
578
473
618
595
465
286
537
536
647
372
534
712
448
447
448
612
601
427
543
536
716
543
378
461
633
492
456
323
790
592
485
446
590
497
501
412
410
875
530
467
387
774
492
441
409
620
580
471
460
481
644
505
394
711
547
676
429
438
590
466
612
298
527
595
554
413
353
771
559
405
474
698
505
454
407
481
653
616
465
509
641
549
463
423
587
492
689
181
625
632
501
505
484
702
481
546
397
547
560
524
366
534
645
605
447
515
535
656
424
431
563
561
635
354
460
794
482
454
440
700
467
509
464
564
670
305
505
512
635
492
484
487
582
525
461
443
634
615
576
328
498
700
320
679
390
623
544
518
434
566
694
429
411
498
598
553
468
454
661
506
489
374
488
682
460
317
783
574
549
419
499
533
512
458
515
570
585
597
393
426
786
500
437
457
601
454
673
406
581
593
515
362
485
614
299
1023
416
605
583
543
370
550
551
477
305
629
634
504
445
548
582
493
484
511
557
602
477
419
474
665
496
366
663
553
536
482
459
483
646
436
351
410
564
544
492
452
680
478
377
469
578
544
467
553
450
644
580
451
481
604
513
495
393
561
786
396
429
570
603
450
623
314
814
467
506
431
592
632
425
496
514
668
561
403
432
621
651
441
469
585
519
534
404
516
679
485
461
373
691
458
594
384
553
577
499
367
481
712
480
447
649
651
559
461
431
541
530
574
354
619
684
468
519
464
512
642
427
412
566
534
567
304
547
677
507
435
452
533
659
436
464
578
637
499
406
466
692
456
449
505
691
426
542
478
538
588
480
254
700
551
461
570
414
701
481
515
394
588
579
509
313
528
645
440
652
418
693
473
554
312
489
607
488
468
535
528
694
304
535
706
504
508
387
679
508
447
449
508
634
564
365
543
619
587
486
485
695
635
505
432
560
649
563
429
542
652
557
481
389
605
449
474
418
549
631
497
411
485
626
466
665
438
765
482
475
412
488
663
541
365
565
506
897
400
473
699
542
555
411
503
657
526
501
522
540
612
485
413
588
557
404
453
516
743
622
454
497
523
593
379
448
646
624
395
469
447
632
637
394
467
729
479
473
386
618
586
453
418
489
790
464
450
635
524
591
566
427
573
464
544
354
485
687
502
438
553
605
667
455
382
558
591
497
384
505
626
576
424
527
660
545
455
501
621
543
450
355
512
655
552
444
487
613
452
495
438
622
638
436
410
511
651
532
455
473
681
476
515
306
652
459
565
407
539
580
515
368
462
1023
460
527
458
699
520
384
474
515
564
529
510
386
651
496
477
411
475
575
511
404
575
637
436
534
395
675
554
469
502
574
504
431
448
625
612
587
369
511
626
513
489
412
671
515
489
374
569
553
538
467
390
655
502
497
410
685
525
487
344
659
596
465
504
477
580
531
552
385
574
626
504
316
563
626
478
385
481
615
479
565
300
722
487
506
408
564
607
465
507
548
641
486
493
296
525
605
487
422
581
691
420
460
455
545
526
473
525
533
512
490
438
659
549
551
506
411
680
616
406
535
611
535
373
424
527
558
647
427
469
611
464
471
314
678
529
506
390
488
779
460
402
610
655
450
626
350
677
636
482
357
597
583
499
486
477
668
485
488
438
593
567
491
355
541
641
468
423
753
595
538
493
415
586
492
518
413
620
581
530
516
422
629
587
479
441
667
600
486
346
615
644
495
434
604
573
496
513
427
616
560
470
227
631
612
511
473
498
657
501
499
433
595
610
353
508
556
578
534
481
452
596
525
499
363
716
534
464
415
544
581
398
648
451
605
559
472
457
598
641
458
468
492
634
510
419
502
532
560
441
349
556
646
465
327
534
573
634
453
465
631
570
453
428
601
595
441
344
569
688
581
412
478
600
457
509
415
613
563
513
447
594
505
569
502
465
620
482
558
448
579
561
600
263
644
588
482
397
545
598
454
496
522
628
607
412
486
553
552
460
646
446
646
498
399
511
550
568
529
396
520
766
520
468
521
669
432
613
526
602
661
419
601
485
553
552
404
574
483
698
428
484
681
533
493
408
548
575
539
459
451
626
480
476
448
598
534
489
314
532
774
479
449
488
557
509
447
422
600
503
725
232
586
613
490
461
473
593
652
469
356
736
502
459
206
743
542
457
499
445
696
461
445
519
699
479
558
456
557
558
490
461
524
669
469
585
433
627
575
531
324
556
1023
501
463
529
616
470
509
483
712
531
545
353
554
583
445
489
450
779
421
669
334
745
474
568
345
546
575
505
469
413
611
534
497
446
618
526
496
394
569
588
538
452
514
666
583
439
469
648
511
426
498
485
698
545
459
464
696
466
460
409
648
583
453
395
612
506
658
401
493
663
664
416
441
662
529
471
456
563
600
566
439
556
650
461
470
590
636
460
526
420
525
672
479
500
544
562
503
448
441
614
468
472
412
535
603
506
474
480
630
510
490
451
649
515
565
320
561
653
527
373
493
637
479
635
409
731
533
504
364
501
646
459
539
524
783
457
482
287
738
488
559
372
677
601
452
542
419
644
589
441
555
641
679
498
294
593
579
449
371
490
637
450
481
401
627
458
607
332
637
581
536
476
485
607
492
473
448
572
696
474
282
661
483
498
436
508
650
389
591
375
675
523
446
455
545
606
500
441
628
641
529
555
463
652
628
464
459
546
543
509
455
471
636
535
443
440
548
590
451
491
631
572
524
462
458
665
476
474
632
578
631
484
403
540
665
464
422
492
640
543
514
435
652
469
506
406
621
632
493
511
481
624
513
463
452
655
500
539
402
546
612
535
466
508
581
472
517
453
588
609
509
358
683
563
423
495
446
727
537
481
403
673
480
583
336
613
587
601
391
501
723
458
496
460
614
564
491
375
561
658
512
441
528
595
520
488
461
604
629
495
374
544
624
481
472
495
629
546
500
428
629
507
504
432
591
562
494
466
453
606
514
441
518
619
534
503
359
480
570
471
414
483
732
505
483
474
570
505
519
481
481
695
481
376
498
640
536
472
401
615
638
489
372
521
608
465
407
508
656
506
500
432
741
482
613
272
668
517
534
356
486
628
504
479
523
646
490
462
355
536
547
697
433
493
664
499
420
409
863
546
529
462
542
492
526
338
500
649
483
449
435
496
698
454
414
567
575
486
429
507
652
522
449
452
624
582
484
383
587
570
416
415
565
542
621
513
402
538
640
453
350
700
519
476
477
556
521
521
457
430
663
600
492
466
578
652
440
437
469
721
536
495
439
651
562
433
548
534
638
495
413
481
550
692
477
326
740
470
500
342
554
586
558
367
315
807
428
543
457
592
528
487
323
633
575
511
437
489
629
473
538
315
695
689
444
551
445
694
513
371
664
552
503
538
418
592
552
490
382
645
528
487
426
555
592
516
509
470
620
581
360
409
547
604
610
435
476
619
472
460
430
643
482
515
274
837
485
501
420
543
657
465
540
376
699
558
445
421
485
658
351
463
509
613
538
448
443
631
487
399
570
558
601
506
406
453
648
536
467
481
683
546
446
513
526
504
734
446
539
653
522
477
430
655
542
515
469
551
698
506
336
446
641
451
480
504
607
639
480
285
700
580
404
449
564
586
472
496
387
692
562
416
444
536
610
420
502
470
554
552
486
351
767
468
359
402
642
514
500
421
551
524
656
448
339
847
521
452
407
639
581
411
443
433
678
479
476
338
699
592
548
264
697
579
479
294
535
604
505
544
483
627
509
529
410
559
601
472
365
493
644
633
518
452
624
517
527
322
597
538
546
453
482
578
698
484
444
548
563
459
369
758
554
565
391
451
526
504
463
489
668
528
527
312
502
607
542
419
585
546
495
562
436
693
476
443
469
517
562
513
450
426
623
461
488
445
557
667
453
421
536
720
428
449
487
644
494
438
510
544
695
441
467
668
526
466
419
516
623
513
532
429
531
678
438
353
691
579
426
453
395
776
489
382
513
632
539
478
314
708
435
471
405
462
696
534
382
512
625
477
505
409
579
562
481
433
419
681
513
491
478
669
507
488
497
586
648
461
409
505
635
501
486
516
750
463
521
440
526
572
501
345
537
683
480
478
431
628
476
514
458
567
613
482
357
500
605
605
538
450
696
460
480
446
608
603
437
500
490
635
547
436
526
622
471
638
371
570
631
489
292
521
683
457
506
462
628
515
447
352
687
651
454
423
502
632
512
465
420
728
470
491
538
538
631
513
420
458
637
511
445
507
638
506
460
467
650
548
498
423
500
645
535
455
430
638
632
450
498
606
514
518
433
433
729
478
459
466
639
486
475
498
478
697
438
386
482
635
461
485
398
684
438
508
410
625
534
441
407
433
531
658
371
498
631
515
510
364
597
573
498
297
583
567
545
505
424
684
526
485
545
608
555
532
375
464
665
556
498
456
630
541
449
409
594
630
465
449
575
581
547
453
546
563
631
490
439
469
787
392
345
541
633
583
433
426
676
481
482
528
480
673
448
414
692
697
621
473
373
635
619
467
418
655
687
357
504
439
656
517
491
415
583
602
527
402
653
601
440
353
599
569
514
485
481
665
553
455
364
556
591
398
405
450
699
385
585
418
665
575
481
378
535
593
509
397
510
654
510
447
449
685
435
558
543
599
517
520
375
550
534
665
464
480
650
569
437
447
486
630
504
479
597
644
478
450
443
591
511
487
470
595
559
492
414
478
678
508
457
499
615
456
524
347
556
692
452
374
529
621
504
428
476
649
531
555
416
686
537
478
415
480
608
514
464
476
584
467
526
352
592
613
477
456
490
654
514
576
410
664
507
480
245
699
506
475
514
464
689
513
432
488
648
550
503
436
500
753
458
390
494
577
557
443
375
669
590
475
341
543
533
508
459
487
723
591
234
513
492
586
429
471
589
511
552
347
452
618
550
425
422
728
512
482
415
542
642
478
369
464
700
417
506
467
770
492
511
367
572
532
523
302
567
628
515
436
422
638
501
510
486
548
611
508
405
447
627
541
502
463
661
506
438
696
630
536
470
330
482
650
484
494
498
605
498
471
314
783
518
492
353
565
601
522
469
486
698
501
458
443
618
538
458
500
468
584
691
443
520
658
512
454
420
638
580
523
386
488
666
452
455
444
620
599
517
408
699
590
489
378
451
698
581
489
495
661
554
429
358
628
561
508
441
487
661
463
424
444
664
552
461
362
666
531
488
432
462
565
426
527
420
618
476
611
398
508
711
455
333
537
649
532
458
399
698
542
592
392
761
532
471
394
480
681
473
483
390
575
635
613
364
644
529
461
391
487
645
528
646
401
642
545
463
381
652
546
505
466
493
684
443
483
518
695
649
397
453
536
553
482
462
423
559
584
376
374
708
530
435
378
547
537
498
478
449
613
484
458
491
631
541
426
492
539
474
643
391
562
700
523
449
470
732
472
490
410
622
497
468
414
465
700
420
514
508
585
499
499
442
652
549
490
477
485
611
499
468
484
631
572
479
415
680
502
486
550
468
606
606
512
390
686
662
379
433
638
531
497
343
650
563
497
677
439
643
500
472
359
687
603
484
482
503
539
608
486
458
591
554
487
348
550
545
474
466
515
659
516
481
423
555
524
566
488
626
519
411
468
492
665
618
466
421
600
532
526
534
516
717
514
412
490
678
502
548
506
631
528
587
325
682
512
461
451
464
624
523
508
436
700
512
408
407
488
609
478
465
491
604
540
450
573
666
517
509
436
531
658
474
356
641
569
512
483
569
494
685
570
352
571
578
498
383
445
697
480
463
568
678
508
480
429
516
691
449
499
446
567
657
454
522
642
513
460
387
611
546
482
491
527
638
518
420
572
586
545
427
496
578
652
463
442
502
677
471
470
460
604
564
521
342
642
606
436
443
558
544
546
468
481
632
483
399
435
637
550
539
434
447
648
472
469
457
670
517
409
454
479
616
542
423
489
593
610
395
633
633
491
507
345
627
607
448
526
484
605
527
547
382
668
501
531
323
581
536
621
382
543
658
470
601
370
674
490
610
357
609
503
630
300
533
668
615
479
425
696
546
497
366
668
728
431
321
635
618
536
464
455
697
462
610
470
532
708
495
425
416
754
474
463
532
640
510
417
450
593
709
443
402
475
633
494
521
517
675
585
502
390
597
547
539
443
502
625
509
420
466
563
546
482
470
523
576
491
413
447
797
487
449
456
598
671
468
423
602
542
454
364
543
641
571
427
493
781
440
498
423
567
636
478
438
485
581
528
469
432
589
471
467
377
666
599
405
435
461
697
508
460
589
586
534
550
414
570
585
470
442
480
635
505
454
447
704
619
512
463
566
673
457
359
472
665
528
481
439
696
528
484
388
686
785
457
423
513
671
511
412
436
677
602
488
408
572
572
397
558
472
787
484
517
441
615
505
469
484
529
635
496
395
492
617
491
474
452
588
618
481
429
524
575
540
363
515
698
519
444
450
663
513
525
439
568
627
476
432
472
666
535
484
431
679
527
581
337
694
626
442
427
505
649
483
501
389
722
459
493
409
630
517
440
417
581
686
514
501
471
596
468
474
426
633
619
488
223
656
553
596
517
455
698
524
453
365
602
549
631
349
524
641
461
477
481
559
580
507
454
637
629
542
430
471
622
498
488
441
697
398
862
274
593
561
533
414
407
640
680
465
466
648
476
612
382
553
583
530
420
492
616
524
486
383
696
505
511
432
636
560
502
487
448
790
553
500
423
700
510
465
363
608
609
499
396
508
761
495
476
439
628
520
498
417
545
578
487
376
600
604
517
446
477
546
532
521
373
526
602
486
378
629
772
470
453
440
791
482
456
377
636
623
521
374
650
623
450
408
483
576
505
567
440
505
610
601
346
519
622
527
464
331
829
486
461
470
540
512
598
402
486
672
534
470
347
772
556
534
421
645
606
461
368
497
696
517
452
486
585
527
481
362
510
705
617
336
542
708
491
438
431
721
521
467
445
576
560
504
406
494
682
503
466
427
628
458
627
321
738
555
484
468
456
576
625
460
562
607
555
493
389
517
629
451
502
490
605
539
502
428
647
523
488
432
565
700
455
413
537
618
498
461
448
680
508
538
408
636
557
489
451
464
636
461
494
475
632
503
604
516
535
646
492
528
502
603
513
458
460
618
518
454
428
672
628
553
383
463
638
506
378
546
684
501
565
358
620
538
476
393
469
654
505
463
508
613
507
457
452
505
617
508
477
479
623
493
483
410
695
567
452
460
657
745
480
435
503
623
492
468
460
668
545
484
439
541
674
486
454
467
694
576
510
450
697
538
468
405
552
598
480
459
470
639
499
489
466
649
534
541
430
560
644
518
449
496
624
450
506
464
557
572
597
360
593
617
467
422
423
716
581
475
465
650
510
445
419
552
542
608
412
575
570
566
446
461
697
480
512
345
545
659
457
468
485
613
436
613
378
695
521
540
405
503
563
491
441
477
696
485
478
426
634
529
509
480
538
564
530
391
461
637
568
459
445
628
536
482
402
597
576
433
505
444
692
497
462
455
745
489
515
383
655
562
469
418
528
670
583
590
467
629
662
440
376
488
567
514
424
430
797
491
479
448
638
518
535
338
534
693
499
445
628
566
497
534
421
629
494
557
349
700
522
512
398
489
748
521
413
441
619
495
470
413
538
621
463
423
519
626
547
453
438
601
477
498
375
565
556
536
489
501
606
536
471
413
630
588
429
403
589
606
488
372
503
615
552
492
420
543
449
674
301
689
645
448
450
469
673
500
504
450
645
478
598
437
506
629
583
401
456
526
365
543
420
641
499
690
255
544
523
605
435
544
569
508
508
265
734
445
474
692
481
647
515
458
463
666
522
458
448
646
501
475
417
661
694
511
416
507
637
448
428
448
754
482
493
487
488
603
500
418
480
570
547
481
454
526
587
627
266
612
508
491
234
710
640
591
653
426
587
545
457
312
636
533
458
426
487
631
533
488
431
593
599
491
362
521
754
583
408
667
628
504
437
520
548
547
527
401
585
620
521
476
471
589
558
455
357
651
518
492
313
611
652
476
484
437
764
470
445
532
681
522
486
305
540
616
413
494
499
638
473
483
405
663
532
656
307
636
540
699
390
536
631
595
457
372
674
484
437
382
843
429
655
343
425
597
515
365
490
676
523
465
425
614
539
469
488
496
575
614
415
417
622
544
391
685
476
502
511
478
434
709
498
435
515
583
509
362
451
586
594
503
455
525
496
462
387
662
724
565
490
362
568
622
479
454
477
672
587
432
441
556
668
510
425
639
559
511
276
585
604
508
651
325
629
560
437
400
564
540
657
499
483
591
659
463
425
608
507
491
265
750
544
616
478
419
808
395
622
413
593
493
535
297
626
584
492
496
549
595
689
469
396
686
675
469
586
454
633
575
438
545
647
514
467
471
738
527
532
351
556
567
444
639
486
611
519
490
337
597
531
490
313
571
651
399
434
474
521
562
499
456
695
471
500
348
480
671
481
503
462
698
464
567
339
681
506
541
378
672
551
442
539
440
595
616
445
406
803
439
560
393
511
587
564
351
528
747
468
538
338
485
854
316
447
550
616
282
576
427
590
446
698
315
760
493
491
572
486
837
475
498
415
512
645
386
492
641
512
476
357
569
647
450
639
462
552
542
443
452
648
522
345
494
573
666
607
239
784
440
533
580
286
565
542
411
299
579
620
503
469
511
559
506
506
428
654
670
475
407
498
650
515
361
500
542
490
393
580
673
617
607
298
597
548
480
490
488
624
484
545
209
991
452
495
468
508
547
476
390
476
763
473
546
527
645
500
499
305
698
545
417
467
245
981
396
398
442
784
561
331
435
536
601
495
512
364
841
377
369
615
646
496
491
414
542
633
476
417
408
725
472
351
480
482
525
457
444
564
579
465
303
594
513
535
495
409
532
533
313
527
488
663
604
365
568
591
461
483
448
606
500
512
382
530
589
544
417
431
575
570
448
460
686
496
421
513
612
475
602
447
466
567
509
434
460
585
537
509
368
533
632
437
461
470
532
538
523
382
521
610
500
363
540
675
489
577
463
767
546
514
471
573
543
477
376
598
595
474
545
349
614
728
391
436
698
586
463
473
540
545
596
334
598
557
683
490
263
794
586
401
439
496
664
527
411
459
724
382
714
431
568
480
593
294
573
710
367
488
446
656
473
568
500
500
625
505
389
474
738
512
443
560
640
490
640
458
715
481
478
469
503
677
472
526
470
748
436
483
451
547
583
631
246
624
657
476
513
409
693
563
385
587
799
510
526
450
553
529
505
461
538
693
383
681
403
527
549
519
358
524
657
495
462
500
696
515
453
445
618
675
437
513
519
602
508
404
501
467
837
471
351
487
609
313
815
481
861
469
421
341
569
471
511
486
566
579
494
456
499
631
494
587
448
644
462
507
359
584
617
360
728
323
596
454
637
457
523
607
431
379
605
553
475
314
657
548
527
519
408
652
584
450
447
570
500
507
435
470
621
510
544
387
689
466
468
662
580
499
614
354
697
621
540
466
447
564
473
451
453
647
528
489
326
580
556
461
504
431
598
501
416
500
523
534
442
450
694
625
457
513
432
621
552
459
449
545
490
473
372
515
560
474
508
488
629
472
516
213
624
514
606
461
462
630
479
512
388
608
554
482
321
689
588
519
341
521
750
354
511
400
553
628
455
560
675
460
759
371
456
564
829
321
445
675
524
399
423
658
518
546
412
508
582
602
486
475
564
619
440
355
562
744
369
519
507
488
820
369
447
649
531
683
272
535
678
525
445
488
540
530
420
522
653
591
515
393
644
541
476
288
784
551
534
502
452
652
643
437
396
630
414
450
442
382
661
556
478
286
769
485
528
431
544
578
442
420
468
600
595
400
451
728
498
553
419
629
514
495
380
485
665
497
550
448
633
579
370
519
699
547
538
450
525
642
480
604
374
766
574
471
431
512
624
441
382
520
594
486
455
505
579
722
447
387
585
626
481
446
649
602
649
431
498
508
717
433
416
661
557
574
400
413
698
542
454
452
711
530
483
448
471
706
499
391
499
577
501
460
479
668
554
468
379
570
604
467
329
612
554
497
512
486
622
543
446
413
518
627
450
467
471
639
492
435
428
698
541
486
370
602
591
465
453
561
545
528
537
417
637
566
448
449
644
548
520
538
484
822
419
622
405
621
550
458
434
511
542
503
424
428
596
690
334
526
629
488
699
293
562
568
554
488
396
773
488
474
423
628
685
344
470
622
542
550
355
521
650
503
425
474
603
489
483
361
641
554
507
555
455
608
554
465
487
551
560
474
338
698
593
460
324
625
560
498
496
460
582
523
595
405
611
588
477
452
471
627
513
489
462
666
590
494
380
564
609
458
438
491
664
513
427
478
761
526
533
370
507
594
381
341
504
641
601
517
447
680
530
444
247
557
579
504
577
379
644
511
521
461
521
772
411
464
530
593
413
331
449
518
516
428
479
589
538
422
465
412
815
406
378
587
528
502
422
380
697
463
526
437
571
574
446
446
503
620
528
509
371
541
598
633
402
516
558
544
435
585
532
512
534
457
560
599
443
203
610
574
603
450
560
657
510
572
385
679
526
426
382
605
586
445
473
358
729
515
397
568
736
502
460
582
456
670
549
455
515
586
475
381
438
606
585
557
331
698
702
329
611
357
613
337
702
453
550
542
527
230
554
631
477
583
548
683
553
533
401
583
455
479
290
631
636
541
427
528
483
401
640
362
529
652
475
432
482
579
502
509
446
756
461
462
402
780
381
699
339
650
527
650
306
458
682
458
443
495
685
533
468
320
588
623
483
491
557
658
503
449
177
1023
461
476
442
532
721
565
396
388
883
429
632
425
596
626
544
361
493
502
514
328
665
696
487
550
388
599
533
463
400
634
676
363
542
463
666
466
401
520
495
688
532
251
699
653
481
479
443
632
493
628
409
629
468
445
440
635
569
479
616
516
630
516
502
428
554
743
399
454
627
671
482
518
437
623
516
458
459
582
536
367
329
689
598
471
577
465
518
594
429
423
516
756
369
491
747
578
466
537
448
676
580
493
441
695
548
485
365
636
555
541
451
459
673
461
488
425
599
617
576
403
481
725
466
466
578
543
618
469
370
536
586
516
399
571
687
491
409
436
642
657
420
456
641
431
411
520
638
596
539
483
397
549
607
473
448
628
674
499
411
470
771
457
468
427
665
472
503
386
679
726
466
401
502
638
560
413
555
748
442
643
420
519
550
589
293
543
685
471
473
449
643
580
525
301
556
530
458
411
423
629
492
408
509
658
514
450
489
491
698
507
459
532
610
393
616
374
831
501
494
429
581
539
444
442
531
680
524
389
524
605
539
433
541
506
620
489
316
558
640
535
395
655
682
475
502
417
568
535
497
410
571
670
482
354
686
492
645
516
423
588
494
552
364
504
616
480
498
411
651
542
540
345
540
578
537
615
461
671
608
423
377
669
552
519
395
611
651
371
511
501
623
563
442
473
679
738
401
466
680
492
436
277
506
675
496
468
452
655
401
742
390
516
696
500
362
506
617
542
473
418
590
592
468
469
589
561
401
478
519
646
513
505
545
591
520
498
527
592
541
477
394
549
597
502
486
521
699
503
444
333
677
556
493
481
471
632
574
489
468
542
607
472
523
699
544
441
444
501
626
609
375
341
797
495
476
301
685
584
437
470
502
654
497
476
465
584
584
493
485
499
723
416
371
568
590
500
470
490
666
394
612
446
603
566
527
350
434
775
505
538
401
748
504
393
468
555
588
471
483
582
567
524
646
395
709
571
560
383
609
602
464
470
459
651
467
495
464
795
502
478
460
528
528
423
514
454
690
549
431
474
622
461
582
502
605
571
479
442
460
533
503
460
430
647
466
523
439
515
688
471
333
478
636
499
501
432
660
576
468
392
616
659
515
486
535
649
483
477
376
595
558
382
463
586
549
392
482
382
645
611
465
429
573
576
466
368
636
553
489
253
648
560
523
401
434
686
490
549
475
573
687
472
406
424
627
505
499
497
740
468
463
343
568
618
482
462
477
715
485
505
447
663
511
429
359
668
607
497
416
476
606
534
584
492
695
629
464
563
619
567
472
435
363
747
462
476
426
803
386
705
376
538
597
537
445
493
628
592
454
433
696
482
475
315
614
625
481
457
495
699
386
464
474
640
601
459
350
517
576
426
558
489
683
496
450
403
638
499
492
332
656
497
545
435
520
564
520
456
461
617
523
468
322
647
622
587
428
482
839
500
416
469
607
462
528
398
560
555
661
459
334
690
551
463
474
597
515
488
371
606
505
742
534
327
720
508
521
417
620
462
455
512
492
580
505
517
422
608
488
495
409
667
638
449
420
536
658
456
365
547
560
557
448
406
636
693
441
463
556
620
493
444
360
804
479
486
419
582
614
419
480
536
585
524
463
502
606
578
467
471
705
496
489
357
565
600
488
449
473
660
512
428
463
646
530
506
283
646
695
416
470
477
531
588
483
468
681
541
447
483
529
563
575
457
679
624
767
416
479
630
486
503
319
505
579
697
488
448
661
548
497
291
652
444
699
340
535
699
426
459
441
582
601
462
475
632
483
461
405
526
644
490
694
445
605
536
501
411
554
685
453
419
606
530
524
403
575
608
504
510
394
583
489
509
436
554
642
572
486
432
742
498
435
501
657
549
520
449
486
615
554
493
475
645
539
520
387
565
696
512
448
473
743
479
422
483
611
505
459
400
731
484
564
425
511
630
422
477
656
591
560
470
464
549
515
472
427
511
649
462
533
434
638
537
490
529
659
488
536
416
520
671
489
457
447
658
469
445
536
625
631
567
353
551
587
499
457
448
699
485
531
454
554
561
475
319
487
631
477
440
516
662
501
546
351
669
549
479
329
567
680
469
490
488
540
510
404
437
634
601
500
417
477
550
521
453
481
731
491
502
376
601
544
492
449
518
679
471
505
477
628
486
471
361
676
689
493
407
539
598
408
391
573
616
585
516
463
622
598
442
466
459
638
502
495
480
629
533
443
455
512
519
499
414
477
698
539
416
440
578
545
454
442
545
728
473
403
488
744
513
487
438
645
552
451
415
569
670
528
397
463
592
643
577
482
699
488
444
422
543
567
502
426
501
735
453
507
522
670
453
498
265
536
587
597
359
489
823
489
458
452
604
637
441
305
694
503
457
405
498
792
486
376
661
541
557
482
360
483
491
694
159
691
695
494
459
313
635
663
457
447
555
698
462
467
380
653
533
490
437
567
697
467
463
580
581
619
398
482
672
455
470
493
596
416
736
353
572
696
373
435
565
621
532
502
410
627
561
658
391
568
501
545
399
475
693
556
502
417
695
475
462
402
600
537
807
289
439
699
488
309
367
505
703
428
416
558
550
439
448
532
535
532
475
287
1023
560
553
426
737
463
338
533
542
607
481
534
460
613
561
441
361
779
534
456
414
468
569
500
544
475
501
664
530
199
544
684
486
433
506
592
485
506
500
699
571
456
433
556
664
434
504
469
583
633
455
507
739
562
481
440
528
483
432
486
391
698
471
350
631
610
479
446
378
526
622
417
567
325
806
522
464
416
1023
456
475
429
552
441
599
313
518
555
690
403
419
606
574
464
438
573
573
474
473
453
753
495
398
482
660
480
600
285
532
625
547
344
456
565
506
650
204
645
575
562
368
699
636
507
363
728
532
581
364
430
653
519
499
447
635
564
388
633
378
548
497
513
339
817
681
427
470
538
602
438
484
537
504
688
459
445
651
616
294
400
552
655
557
498
476
743
562
475
473
645
499
476
385
664
622
520
431
465
650
450
664
380
772
459
608
378
620
545
504
501
489
669
450
693
447
632
450
466
421
634
534
446
449
409
660
599
414
525
661
507
357
543
515
557
557
444
497
585
556
455
466
648
515
451
277
660
502
497
487
569
538
499
435
452
634
566
573
302
602
586
622
335
628
448
639
482
389
643
493
446
406
677
557
517
452
428
612
517
525
532
424
754
397
393
515
602
462
463
455
768
464
560
343
624
549
450
356
683
629
407
456
510
640
511
462
393
618
471
644
317
730
578
406
407
505
644
607
541
491
780
588
430
420
567
606
498
455
454
644
782
496
330
733
517
324
398
590
619
497
469
377
853
436
510
478
634
488
578
326
699
623
528
480
495
506
552
482
457
686
595
456
326
502
540
425
784
456
654
550
478
419
542
609
438
505
596
644
436
445
495
687
506
425
726
569
547
491
272
535
670
446
489
530
649
503
477
483
775
548
467
466
628
567
571
421
502
658
546
510
406
746
548
492
449
568
596
505
473
462
741
513
456
581
564
567
606
365
523
639
484
625
456
536
515
481
435
620
534
543
365
570
657
472
479
485
496
594
438
429
568
657
571
411
628
601
494
623
336
679
534
471
468
602
531
516
444
574
650
492
488
446
567
805
484
447
696
437
699
298
492
629
512
452
444
845
520
482
397
696
540
429
462
565
691
516
519
283
782
449
615
576
536
531
312
427
430
640
532
605
470
506
458
425
398
516
700
487
438
525
572
530
493
408
640
648
470
372
539
545
313
412
506
621
468
507
439
732
503
486
415
584
548
468
509
453
659
506
497
438
331
904
389
599
578
575
490
324
456
547
573
468
602
629
491
503
434
539
517
461
542
448
850
523
530
342
792
523
345
380
577
448
601
305
488
652
498
464
462
621
535
488
452
615
569
586
330
486
602
483
644
421
642
576
476
318
575
617
406
474
500
599
598
425
450
633
522
400
636
458
598
521
319
756
527
463
603
431
604
380
529
672
568
597
499
339
696
498
656
113
916
553
458
585
295
533
648
362
424
490
546
555
438
478
512
509
496
543
501
687
479
402
455
442
357
412
388
536
759
481
350
590
582
499
385
499
605
461
578
498
576
617
474
440
516
545
465
428
550
699
413
464
553
835
433
674
413
550
617
479
364
476
566
470
447
382
744
455
645
307
591
538
501
419
508
602
412
644
489
681
549
481
510
483
596
412
394
484
513
607
625
458
633
513
496
370
585
532
569
434
461
607
549
500
354
590
505
586
363
604
586
494
463
392
731
662
495
478
657
653
444
437
537
538
600
263
871
530
571
483
419
634
547
471
503
642
449
668
398
482
585
537
584
363
597
633
471
437
508
590
777
379
482
697
535
472
376
569
511
453
525
569
589
473
333
721
562
484
464
470
634
438
520
442
561
668
586
420
516
632
446
538
582
642
543
494
384
623
544
574
443
407
718
506
449
457
784
458
444
374
539
592
495
430
599
611
598
455
500
589
635
494
301
555
630
550
481
425
821
515
402
569
516
557
400
383
803
509
610
478
566
544
532
397
590
606
511
447
650
586
621
562
349
537
542
504
536
464
668
466
697
265
586
668
480
466
387
625
617
544
331
592
477
400
538
536
596
571
372
620
543
538
491
513
700
587
382
301
682
558
552
481
473
618
515
500
315
710
560
519
500
554
532
406
578
484
575
453
460
352
592
617
627
367
535
728
389
485
473
638
529
501
404
763
459
595
436
507
546
536
423
470
657
460
495
439
525
469
415
399
615
658
507
699
584
574
501
502
655
547
441
688
324
699
651
472
598
328
640
600
349
731
637
569
537
497
738
579
532
496
568
511
448
495
469
829
546
423
438
494
574
540
418
550
615
486
492
380
652
542
573
180
719
695
350
633
556
544
493
394
288
418
655
483
218
553
656
517
452
563
591
507
440
476
594
593
308
548
440
559
551
469
453
563
740
356
392
761
375
429
471
478
645
544
466
538
696
566
522
344
666
444
491
390
463
596
596
543
608
594
491
547
138
918
441
498
483
478
541
476
558
521
636
538
432
530
555
644
461
419
498
536
534
742
362
608
571
493
200
786
575
459
385
701
417
672
267
491
811
404
451
265
823
475
498
390
674
597
514
416
517
606
463
602
412
462
638
394
249
715
546
471
489
470
844
454
478
373
723
557
376
464
493
729
545
454
481
648
494
389
457
608
533
419
449
477
623
499
471
468
654
468
494
356
526
641
538
386
390
873
486
438
423
644
535
454
512
548
595
296
346
428
1023
489
562
503
646
464
413
481
594
579
446
423
459
655
433
555
556
585
491
546
434
514
631
451
320
684
585
484
479
430
710
403
459
566
600
566
645
527
444
686
503
489
418
718
439
493
406
588
460
790
279
592
685
481
554
483
558
547
340
493
424
838
348
407
582
625
529
486
472
472
832
511
308
644
548
472
312
310
721
454
387
522
498
522
452
397
687
517
433
503
630
648
470
466
510
579
541
523
273
554
560
500
302
772
543
522
460
370
728
462
456
390
569
647
502
290
677
736
485
449
556
608
473
582
306
698
609
457
429
539
626
550
502
384
697
455
482
357
631
504
435
423
523
696
484
498
457
686
582
470
367
565
599
428
528
411
692
477
483
468
589
626
522
348
511
527
497
360
482
580
517
432
363
770
459
451
503
505
565
442
430
468
756
410
478
631
485
668
386
451
533
534
639
434
471
652
533
455
360
632
488
498
485
622
584
511
195
683
504
487
542
507
603
427
424
476
558
630
481
435
422
641
517
462
475
660
459
495
366
544
675
513
421
475
720
541
474
678
691
470
659
359
478
582
522
423
471
578
614
392
396
651
444
563
371
538
601
382
345
600
568
512
474
492
764
489
437
462
490
664
619
324
485
819
413
467
403
681
499
467
439
515
601
621
471
402
529
576
576
398
699
539
443
260
647
673
511
441
565
588
468
485
482
641
480
522
287
646
542
403
540
445
555
588
459
477
517
723
423
393
600
603
495
485
437
622
490
696
427
685
562
508
338
551
591
508
477
534
633
463
456
469
697
540
540
