529
649
440
471
460
423
814
304
462
525
736
251
431
594
507
486
276
770
561
546
403
373
467
1023
245
735
337
688
267
388
494
520
690
557
378
653
619
503
498
347
656
658
15
507
552
799
156
653
484
761
385
420
493
796
521
463
509
684
681
318
435
556
663
470
475
490
645
512
386
489
602
497
510
576
488
666
484
529
511
477
464
481
450
698
471
412
453
645
589
478
428
618
718
447
383
760
485
756
314
604
546
642
444
556
403
778
475
336
536
635
516
437
387
646
580
473
463
370
529
664
405
523
565
642
314
532
414
618
641
481
414
760
606
409
492
661
557
407
489
418
733
434
465
502
570
595
396
515
524
693
159
657
468
679
475
452
527
488
511
461
542
754
542
362
506
577
511
582
360
549
575
522
490
510
570
777
338
552
507
604
429
551
451
852
481
515
370
769
595
479
472
586
592
421
481
541
697
476
573
472
532
589
385
474
528
647
458
412
564
635
465
410
524
559
564
448
400
462
1023
357
483
409
692
516
426
507
692
581
297
621
669
608
493
482
447
728
513
437
508
748
620
397
363
515
504
433
670
577
697
466
306
656
550
730
316
599
489
602
381
527
619
747
496
448
502
482
631
351
548
446
697
362
534
543
581
455
569
414
514
714
330
509
494
695
423
356
608
528
605
363
608
521
632
397
430
634
588
438
411
817
543
485
505
509
572
489
430
572
495
619
440
538
489
828
293
454
568
646
545
478
441
589
592
477
474
511
749
509
398
422
740
468
442
515
505
612
435
462
519
808
388
449
540
677
491
510
489
466
696
432
489
405
698
432
387
588
567
463
392
389
435
634
419
560
303
800
435
379
520
548
547
576
281
526
600
291
692
508
738
621
472
481
483
492
415
464
537
787
378
453
467
494
609
339
527
627
586
366
404
433
866
255
639
765
539
426
477
542
676
477
454
449
512
691
456
498
541
696
527
350
530
612
533
350
473
489
600
418
605
345
827
606
265
626
645
575
371
390
698
481
382
540
538
573
424
405
545
608
754
337
441
617
493
576
432
403
824
416
625
422
569
650
405
496
525
654
403
449
635
575
451
507
570
533
680
368
571
460
731
391
438
599
599
437
469
461
618
497
415
478
470
868
375
537
504
653
578
364
498
575
614
478
557
459
649
339
486
497
722
445
347
496
706
552
387
493
486
621
439
492
488
724
405
573
477
571
832
288
546
556
586
560
428
453
622
538
373
589
928
358
378
546
466
672
388
477
542
577
508
476
430
727
513
354
496
534
525
701
432
662
803
476
511
449
531
809
439
404
852
579
417
509
532
627
402
496
646
500
683
405
620
560
794
395
586
477
691
320
456
346
698
643
328
370
563
725
237
662
620
734
383
555
527
603
654
374
513
530
472
642
733
395
763
456
540
600
386
379
792
406
536
573
674
368
734
551
361
463
636
504
507
474
615
442
752
337
447
410
732
428
430
469
844
425
444
449
562
482
511
402
521
682
562
398
397
644
623
471
451
536
601
480
473
402
1023
386
462
510
614
643
473
377
486
673
414
636
535
645
426
528
539
549
584
514
460
499
653
415
562
547
689
433
439
590
532
726
412
370
529
645
463
439
488
640
438
485
449
588
517
364
512
462
660
504
472
319
980
566
454
516
645
550
437
380
545
628
417
571
502
684
317
478
700
615
533
464
376
719
533
412
478
506
729
462
471
676
657
639
408
506
452
661
314
619
453
661
462
483
475
588
621
392
499
506
652
319
495
443
651
420
607
499
454
702
434
468
527
766
328
496
559
589
476
478
555
767
418
477
478
537
650
469
454
228
1008
265
531
602
507
778
388
465
515
697
376
475
492
613
491
471
535
557
603
431
405
549
579
601
415
499
700
340
566
458
557
679
427
474
559
650
410
418
657
603
483
461
502
524
621
487
419
628
751
397
439
556
550
342
677
451
722
489
397
366
671
687
387
589
456
628
466
399
502
660
520
320
603
450
758
268
429
497
683
433
372
490
672
496
310
662
500
660
224
673
477
763
465
415
516
627
525
526
462
475
685
403
374
525
595
559
373
491
507
670
129
821
475
642
494
501
397
644
476
520
473
658
485
495
383
625
671
223
523
468
568
552
463
583
558
663
363
660
339
735
444
442
499
739
425
364
577
684
525
535
395
451
461
683
475
557
740
372
635
443
520
694
470
523
613
503
432
678
502
679
421
433
453
605
638
470
340
546
479
466
524
489
836
391
318
566
871
494
482
485
468
521
605
474
499
542
740
362
406
663
751
319
464
544
657
460
374
511
599
484
410
483
731
421
455
543
559
500
385
553
539
717
476
486
500
504
486
453
659
444
690
312
621
466
567
554
460
501
679
499
454
551
525
550
616
304
618
521
441
799
665
467
574
474
463
410
574
262
542
572
556
630
501
415
670
537
360
457
541
659
373
524
550
541
460
597
428
820
582
389
648
604
603
327
573
479
668
506
379
550
699
775
386
619
637
518
354
459
517
697
436
547
564
508
746
490
443
585
607
494
440
516
586
516
410
512
697
459
436
481
532
698
330
533
465
679
489
399
550
529
784
267
493
553
650
403
497
412
708
524
403
399
721
461
463
537
451
661
381
415
616
524
637
408
469
690
523
521
655
475
609
524
446
482
558
458
585
433
679
514
361
529
499
556
354
601
557
616
493
284
569
630
543
522
491
488
807
364
494
489
666
465
450
533
697
536
339
614
618
539
452
601
511
562
351
697
476
584
504
504
420
588
674
289
450
695
653
497
423
524
689
511
277
597
635
631
516
397
477
604
403
452
540
584
538
480
301
665
547
441
450
668
514
678
394
517
689
550
319
537
483
650
439
550
527
810
410
428
486
533
608
304
559
551
682
438
505
452
644
504
453
506
591
481
446
469
586
561
477
424
473
600
481
435
590
597
486
402
519
577
524
270
669
427
762
404
475
560
555
401
611
539
568
710
430
482
449
680
411
282
654
580
554
245
660
480
764
411
522
479
633
549
481
510
773
412
450
376
580
678
356
472
728
485
472
457
493
604
469
324
508
579
641
478
443
505
675
463
451
526
700
570
426
424
665
617
390
479
451
671
479
436
503
659
554
463
482
583
505
533
463
447
746
499
465
507
701
520
344
542
525
698
464
493
484
597
427
471
639
743
497
383
482
502
517
566
423
452
686
376
484
470
692
551
476
487
526
684
433
433
479
427
729
444
539
609
485
639
374
457
623
316
418
533
498
382
553
533
606
767
359
472
569
530
492
558
387
741
459
527
555
626
490
441
467
596
473
442
508
574
640
278
865
485
550
455
450
476
465
670
433
463
486
601
575
409
541
567
470
430
544
535
531
356
523
639
534
390
532
487
542
464
537
420
816
567
343
262
784
453
493
454
695
539
518
259
530
539
556
504
244
524
492
265
881
265
699
587
349
535
571
428
436
392
601
649
578
470
615
447
626
467
556
553
620
521
423
597
475
476
421
559
461
1023
318
557
473
500
667
406
423
778
433
309
465
558
477
379
696
435
752
515
422
481
671
352
617
500
500
563
520
459
392
866
193
576
585
777
439
330
665
678
488
477
449
771
471
429
453
524
669
679
299
700
586
668
338
567
474
546
576
494
460
628
551
504
428
651
489
439
576
471
967
494
395
493
598
551
557
460
639
619
262
467
637
549
516
613
396
577
381
506
515
688
496
393
389
677
825
398
497
254
1023
203
464
503
501
514
364
512
544
564
478
441
330
603
561
479
463
786
503
244
668
618
529
685
364
525
648
475
456
473
651
598
173
683
466
468
665
553
431
666
489
317
442
660
538
346
529
514
790
286
423
520
618
511
440
423
657
486
517
638
551
479
390
518
392
596
419
554
487
667
488
523
455
548
554
499
429
634
462
788
481
523
656
366
442
622
504
572
601
528
697
508
569
513
620
519
525
522
496
666
563
496
500
441
781
367
564
451
774
477
218
697
550
640
364
370
508
643
494
469
562
542
512
464
623
507
698
650
396
617
714
310
460
518
676
528
366
492
685
500
352
686
426
614
463
334
486
555
498
466
536
579
641
433
567
495
624
642
434
489
761
510
367
463
706
522
526
472
472
795
444
436
365
805
353
487
539
606
473
470
356
458
624
444
440
698
655
533
457
450
574
472
343
541
282
1023
403
466
535
614
519
391
484
576
661
442
506
487
636
486
479
466
566
623
382
528
607
357
366
568
693
541
1023
356
489
881
522
378
546
452
686
376
359
436
731
475
382
493
778
355
532
313
668
684
495
354
445
844
349
479
547
611
443
409
303
491
743
413
507
450
594
463
510
411
687
639
353
469
699
574
416
409
456
629
563
436
605
635
390
471
393
724
659
465
477
420
626
580
501
623
547
525
329
491
545
668
388
461
525
696
306
396
603
567
505
445
519
536
691
408
456
509
588
497
412
558
666
446
404
510
454
762
394
449
386
657
698
403
526
538
564
516
283
530
704
474
385
509
532
436
388
483
592
655
421
556
472
652
208
431
515
724
410
550
393
697
495
355
578
559
540
560
451
441
766
430
353
478
542
741
394
509
611
662
433
539
436
673
494
403
622
649
528
483
487
576
517
478
460
478
648
540
434
501
580
728
381
468
544
698
377
463
451
788
452
474
526
617
519
403
508
686
599
400
493
431
712
430
462
567
607
552
401
535
477
760
376
504
522
693
436
348
628
539
556
374
677
519
579
431
541
459
697
463
461
506
573
741
261
541
696
639
313
460
379
700
426
459
595
611
637
369
615
542
711
315
454
507
609
487
465
477
656
485
446
467
569
688
361
453
413
617
583
389
484
672
486
440
505
496
668
445
657
380
623
517
364
420
712
548
248
525
421
794
465
509
465
732
410
442
470
693
587
422
562
558
461
241
698
488
698
501
362
566
598
490
370
616
410
630
408
445
614
699
432
413
579
597
472
416
578
525
652
504
369
551
565
677
414
605
556
536
351
484
525
661
387
489
488
682
504
433
597
581
469
457
434
649
556
506
379
570
662
498
470
509
637
399
498
508
536
631
451
434
476
568
587
474
502
604
617
500
454
624
675
410
508
420
601
483
303
688
566
480
393
553
526
594
387
375
720
489
624
430
573
599
486
381
480
639
588
390
483
444
733
495
470
535
609
465
523
481
646
584
544
392
447
699
336
539
452
762
540
400
561
761
557
367
468
448
696
678
409
520
727
407
413
536
560
766
458
484
559
583
507
452
555
605
583
438
410
495
770
372
416
510
599
259
546
547
569
593
429
504
578
684
256
573
590
588
549
442
718
558
510
423
464
607
570
397
505
509
668
418
527
428
715
524
324
573
591
714
458
476
473
756
470
455
526
758
440
426
433
660
576
375
462
613
531
507
439
531
639
484
469
461
566
649
370
486
447
617
584
468
464
793
485
320
429
692
503
428
528
443
593
456
476
526
566
520
398
432
589
539
500
496
484
645
556
405
420
698
423
517
432
746
551
379
482
443
698
478
417
521
667
496
421
500
554
595
555
474
462
597
482
483
474
544
530
489
468
540
592
348
480
481
687
374
671
513
746
461
490
469
553
563
498
374
529
695
387
484
594
576
387
523
506
541
603
447
418
606
566
423
485
524
678
483
488
552
754
465
252
667
560
524
310
514
486
667
303
465
522
650
466
547
428
521
547
502
231
503
630
394
406
585
812
344
445
542
542
611
284
570
515
607
524
456
754
476
496
532
476
570
552
238
664
533
686
492
400
462
585
568
449
458
995
768
44
462
494
499
424
548
507
768
499
539
77
994
519
287
719
496
566
417
513
510
606
746
313
391
699
524
411
140
861
489
290
463
698
699
472
396
540
494
608
426
479
446
444
835
280
481
662
444
486
520
409
753
437
348
710
507
589
446
571
653
379
643
392
677
590
463
445
308
1023
299
594
417
755
571
400
551
643
544
149
520
558
644
389
646
633
611
477
469
601
625
677
411
370
645
565
511
737
510
688
486
430
372
547
683
358
685
513
545
503
471
229
996
541
327
534
607
496
512
465
493
699
577
399
367
833
332
545
453
599
452
493
574
485
814
421
483
578
597
494
248
538
620
627
356
480
605
520
669
477
639
711
436
474
367
674
441
778
450
498
638
357
436
564
630
240
455
416
657
589
454
358
518
570
512
464
380
736
666
347
392
866
512
281
535
497
668
502
495
527
622
306
420
479
573
673
396
546
433
804
412
341
686
727
443
453
511
569
545
442
460
500
505
537
429
561
559
617
371
459
698
548
338
547
505
596
441
440
556
386
523
400
498
666
551
394
407
570
670
291
441
704
450
509
508
426
623
599
372
534
427
773
419
676
506
697
351
383
740
448
726
466
664
415
620
436
317
556
783
400
467
505
585
587
469
486
400
784
575
441
539
530
516
297
500
543
757
441
470
619
588
396
467
605
647
823
212
541
504
762
270
524
607
624
606
423
517
696
606
451
435
698
592
433
448
560
638
292
616
435
575
666
435
466
790
565
358
557
486
629
550
401
548
668
697
323
485
530
745
347
306
503
743
459
334
652
536
443
361
741
546
576
418
534
283
908
337
491
590
585
355
420
616
558
638
579
311
698
532
399
625
406
696
413
535
487
505
842
185
417
684
541
418
545
494
638
437
512
546
662
539
399
357
672
643
425
455
600
627
454
324
669
547
617
532
475
525
653
409
490
493
746
558
433
461
636
537
311
395
743
475
619
550
489
695
475
388
463
603
545
390
540
478
744
463
513
463
784
478
287
484
752
533
442
554
544
662
388
453
521
600
497
449
413
799
595
293
441
650
680
456
486
488
663
501
265
550
690
629
497
481
565
618
261
681
501
599
567
486
427
591
532
322
635
541
635
432
425
491
670
514
417
608
614
596
353
470
525
670
449
459
583
549
489
558
362
754
267
522
623
465
754
457
202
670
492
351
599
603
492
698
379
540
625
578
364
522
511
682
412
394
546
610
541
335
503
332
863
506
341
489
755
412
413
460
757
497
353
473
547
549
480
445
512
645
489
232
547
766
567
409
453
697
573
299
519
625
699
411
429
576
695
506
362
511
496
668
333
421
622
627
476
448
463
621
542
231
628
618
616
468
492
475
622
496
301
768
616
699
440
438
539
761
325
536
544
689
357
418
544
733
578
316
460
603
609
513
474
496
837
399
432
488
681
511
400
528
445
641
327
332
708
473
503
457
479
628
450
416
480
752
726
356
444
486
828
328
495
508
636
608
306
546
492
761
460
459
539
706
498
470
460
669
681
281
559
520
662
366
534
514
644
412
506
480
562
611
486
483
462
743
357
464
495
569
481
398
627
652
475
689
463
484
669
519
387
476
728
396
537
477
578
575
409
691
463
695
443
428
564
610
560
399
494
732
680
374
503
569
637
388
539
483
745
427
489
501
511
612
442
531
518
716
392
468
613
530
499
509
476
670
618
421
457
438
816
277
468
526
694
588
362
470
668
561
351
582
569
620
445
406
620
624
530
450
513
641
547
286
537
477
751
447
545
497
677
435
433
613
656
514
480
516
457
671
501
454
516
601
495
478
516
460
548
280
487
694
572
435
480
512
607
503
551
669
516
598
353
641
616
662
303
471
468
717
537
366
491
833
500
457
434
595
595
440
457
455
698
475
437
743
616
602
109
702
541
584
533
403
650
542
365
470
683
485
483
503
488
505
658
322
644
454
481
557
397
467
659
488
508
465
386
808
286
509
529
660
407
494
500
559
619
342
466
689
641
366
484
604
505
470
682
458
656
564
442
503
475
719
451
415
604
676
514
448
564
614
654
470
485
486
661
509
441
492
619
508
443
369
657
544
416
472
554
591
439
486
471
695
492
455
511
650
601
342
556
487
666
419
496
478
660
452
458
643
479
757
290
646
453
648
381
483
492
671
419
540
579
606
582
477
430
655
637
354
737
407
718
421
475
558
596
574
406
503
505
698
392
558
462
658
342
428
511
612
580
290
482
506
653
337
538
608
643
438
670
518
669
448
705
441
506
599
361
474
732
541
490
508
521
646
467
413
654
509
827
297
511
471
697
454
449
490
800
739
282
621
636
645
288
548
437
576
283
552
532
581
636
321
540
501
590
407
524
545
642
590
442
525
735
525
329
591
486
576
455
544
719
622
490
453
513
575
502
469
587
500
699
389
443
486
611
402
394
477
696
570
416
552
736
534
416
419
620
698
414
466
552
600
495
507
419
653
613
386
550
462
574
453
544
473
773
651
469
522
518
611
504
421
518
625
473
456
531
620
570
475
423
651
584
343
642
479
679
529
460
457
639
537
370
563
555
485
445
416
489
679
456
503
515
539
656
392
542
690
556
422
501
486
601
451
460
611
624
550
387
500
684
582
427
387
498
647
484
418
534
694
490
344
536
599
784
440
539
518
665
547
465
518
643
488
426
394
668
601
398
511
454
582
93
516
443
698
531
410
557
671
529
478
523
502
779
409
464
541
629
595
383
535
629
640
332
580
491
698
450
531
461
687
425
481
448
548
717
310
588
447
627
465
414
485
673
467
411
503
567
488
547
452
458
673
448
452
444
603
628
329
685
550
619
457
442
504
724
426
419
548
597
530
366
524
575
629
285
565
475
607
491
513
575
527
608
419
440
633
652
408
471
537
622
498
422
370
683
577
337
560
539
694
527
448
516
652
438
458
489
636
457
479
553
570
546
510
380
615
559
442
528
536
607
460
438
499
665
564
406
461
572
537
431
465
569
586
535
365
564
561
568
404
551
555
593
475
441
480
739
458
437
545
543
697
416
471
459
636
413
398
511
701
567
431
601
515
759
316
464
534
586
465
469
489
689
439
365
573
502
548
372
405
509
681
374
485
505
643
471
383
555
502
685
335
538
502
663
534
392
588
616
462
469
461
625
531
376
476
589
585
476
392
507
697
492
329
483
601
662
493
441
565
669
381
479
498
657
443
526
464
623
786
287
494
450
677
324
578
467
608
597
426
462
648
537
320
512
446
699
435
457
595
608
490
372
490
583
686
348
517
478
795
403
435
552
637
520
376
473
664
651
405
484
540
579
425
456
496
699
485
366
530
534
678
356
493
497
679
420
472
549
691
472
420
454
762
504
430
486
541
646
405
475
567
544
586
482
487
695
519
431
474
520
696
432
579
222
556
996
0
795
643
845
222
58
471
594
782
448
495
657
523
282
473
666
486
442
487
515
615
489
497
470
776
375
481
680
561
490
483
424
531
687
477
463
489
577
503
448
475
682
573
458
408
569
600
445
526
537
604
495
437
478
663
592
469
457
504
691
408
439
511
939
412
333
699
509
609
325
438
465
758
497
480
537
680
455
370
413
802
692
426
482
569
695
387
393
541
584
553
496
483
790
657
501
476
528
654
445
458
566
649
459
393
652
542
637
494
491
486
696
379
491
658
677
488
417
407
917
553
260
547
533
630
332
467
486
600
492
479
406
785
572
369
519
539
596
292
670
471
670
496
461
424
555
463
526
496
486
532
486
356
475
577
542
453
551
563
613
189
668
415
741
460
483
529
759
398
580
395
791
721
372
371
515
668
348
503
446
696
415
510
247
716
592
416
495
459
690
318
585
516
700
520
393
614
535
518
384
533
485
687
567
379
566
659
609
340
471
600
565
379
557
545
614
523
459
483
558
557
510
477
747
547
380
452
591
602
425
500
514
666
296
665
564
570
629
440
517
426
531
326
651
724
567
243
279
529
565
614
417
291
547
541
472
476
477
735
539
234
660
539
675
456
594
508
668
327
494
452
648
537
315
592
611
641
440
432
548
692
312
666
748
561
499
526
448
579
602
356
500
466
598
236
533
500
771
376
445
390
602
547
226
542
578
594
486
482
312
1023
461
549
436
698
388
511
564
546
658
425
369
577
512
479
382
481
586
620
217
470
492
726
232
402
604
480
504
534
439
559
491
543
693
762
614
441
422
457
697
509
709
482
530
622
359
288
555
771
507
622
469
593
739
431
433
610
537
423
414
478
698
338
575
679
909
320
521
506
549
470
572
837
461
773
307
521
499
583
526
403
554
444
1000
190
544
522
691
232
512
698
496
515
417
514
664
677
284
500
776
471
455
491
442
537
640
358
493
748
687
343
514
596
680
435
522
562
492
503
401
528
603
812
445
342
629
573
542
388
543
859
322
455
459
566
516
460
441
707
648
457
478
487
674
401
538
480
696
663
381
475
469
674
547
368
613
537
474
448
331
799
469
442
411
626
685
408
652
292
820
492
436
467
640
629
417
354
891
772
369
454
466
733
312
478
513
649
527
384
459
510
564
495
499
455
657
455
536
449
684
573
318
465
555
637
348
672
490
554
501
434
514
698
474
443
544
546
666
278
551
466
754
468
426
627
510
473
430
455
801
656
333
699
444
772
366
512
670
585
557
416
427
561
623
461
454
492
467
822
199
565
761
619
445
420
622
642
509
398
407
1023
181
479
566
614
562
408
516
495
662
224
775
467
660
602
664
428
777
421
405
509
665
609
383
450
487
662
504
464
628
752
522
414
227
823
277
654
245
546
653
589
412
469
636
503
568
432
717
790
348
725
467
614
546
559
353
699
517
493
435
511
618
367
540
499
841
378
508
470
638
504
367
499
521
676
418
518
497
724
512
583
415
803
568
480
518
608
679
488
458
452
633
321
498
466
468
774
518
147
655
540
372
407
530
642
492
403
486
643
517
383
529
482
699
273
385
699
486
700
407
573
631
477
444
453
648
688
485
433
484
697
451
513
364
828
491
499
456
694
659
524
521
545
653
601
443
439
617
605
367
691
571
697
368
483
494
597
452
536
518
651
530
393
447
652
635
450
427
490
680
467
417
497
699
575
441
467
534
537
540
306
502
676
457
483
537
557
680
240
545
694
655
362
492
503
502
672
454
478
666
529
439
445
510
679
433
415
505
670
447
454
500
748
481
465
582
594
742
375
464
560
566
473
553
474
493
692
363
495
618
533
413
528
494
614
443
532
495
695
620
346
505
555
547
524
557
461
681
475
483
519
599
496
484
648
527
512
496
424
462
676
514
293
738
494
667
354
620
610
637
478
463
422
705
424
344
677
706
601
427
464
547
537
348
456
534
698
425
503
379
869
443
538
483
831
356
634
93
649
661
84
792
201
841
271
748
499
674
215
522
180
449
809
452
408
620
832
449
375
672
544
743
301
444
438
772
385
513
590
555
497
358
506
629
588
450
439
500
655
397
551
475
666
345
377
544
556
512
552
436
468
512
726
385
363
621
617
396
295
828
578
251
454
497
629
470
556
679
663
549
402
526
532
480
483
422
516
646
374
587
461
685
484
353
523
487
624
402
475
545
559
542
488
511
786
460
396
412
671
529
499
469
523
570
644
400
609
668
555
374
504
610
467
375
549
501
699
496
400
541
655
471
390
312
585
551
254
443
648
617
683
645
693
689
726
296
497
862
730
320
520
220
699
423
447
469
631
564
429
366
785
477
460
504
526
622
447
636
394
734
476
465
480
616
557
431
485
541
680
317
493
518
671
550
438
321
608
627
289
442
545
640
425
478
430
550
615
386
801
546
648
104
461
428
683
336
478
721
706
662
447
526
663
398
391
526
622
500
365
468
496
513
743
377
559
736
503
459
446
483
663
461
482
465
805
411
336
826
595
517
467
405
491
428
410
486
699
528
450
507
479
524
613
135
528
413
679
335
673
870
774
550
388
680
656
575
320
503
569
501
739
394
497
740
134
551
644
356
757
471
351
638
330
380
659
418
655
454
534
592
683
545
48
551
543
607
307
555
762
865
490
683
535
585
527
370
437
506
600
567
688
443
787
305
438
344
507
286
498
349
519
549
453
463
358
661
502
698
530
615
625
0
491
490
643
515
477
584
796
322
382
464
651
559
384
445
564
605
503
392
459
665
497
427
578
658
561
106
465
361
771
443
510
488
772
493
390
496
699
533
350
806
443
806
415
656
497
612
371
539
509
497
519
432
524
485
1023
409
499
654
590
449
463
612
609
481
458
471
530
551
523
487
457
596
397
482
591
633
561
454
507
447
604
485
477
500
661
465
701
422
649
495
454
471
485
597
313
675
699
544
451
445
498
549
598
325
506
614
602
431
609
431
684
521
330
647
551
540
477
491
525
664
325
538
361
695
520
477
459
528
669
275
758
432
831
426
565
327
746
422
506
466
584
562
376
632
409
761
483
528
366
776
471
431
493
623
572
374
463
531
598
443
456
583
676
458
424
519
618
531
431
731
497
682
494
418
477
762
395
447
456
670
543
442
524
596
580
370
609
440
695
425
464
385
533
678
416
547
437
642
492
489
566
631
495
534
500
492
681
538
462
502
718
351
556
407
669
420
500
684
466
683
488
445
691
556
377
463
484
632
478
527
560
570
625
253
710
492
663
434
435
535
551
687
371
495
685
615
392
476
544
680
396
471
515
614
499
497
513
587
621
351
570
506
544
514
413
497
652
502
465
464
690
461
571
525
506
621
429
563
524
537
471
518
552
630
652
445
449
528
692
281
478
419
687
479
523
516
689
571
409
503
547
586
242
129
558
437
138
651
537
619
499
544
368
530
715
450
420
455
736
389
461
518
614
652
375
578
555
820
452
509
653
573
462
535
551
699
473
345
501
518
617
316
497
543
695
437
554
111
722
598
506
497
486
658
413
397
575
637
490
490
496
528
755
509
504
1023
695
414
542
425
539
438
479
554
659
554
395
478
505
664
440
420
543
726
309
470
605
676
505
449
547
559
621
539
310
692
687
659
336
584
639
623
378
513
516
666
454
606
491
550
505
416
615
496
506
450
621
568
646
511
430
546
575
496
382
580
551
611
350
572
615
775
292
519
628
616
413
482
614
532
522
385
578
690
529
404
471
543
605
382
602
479
821
479
283
507
625
498
632
453
529
757
482
347
589
742
1023
624
495
705
585
486
425
673
660
410
495
444
632
484
480
672
474
808
454
112
524
656
489
423
545
673
469
372
459
570
565
430
460
552
768
449
408
480
811
110
399
852
499
615
238
508
684
518
427
375
363
693
498
0
595
681
612
368
484
590
579
425
460
525
685
676
372
306
784
482
389
458
824
573
531
545
551
589
451
399
492
746
683
287
511
745
580
476
435
743
630
538
356
511
460
605
519
575
406
828
474
479
388
642
666
371
471
490
814
270
416
628
606
379
591
476
660
491
404
467
626
627
407
493
462
593
756
223
543
699
544
342
453
687
769
312
478
638
616
381
333
533
858
379
355
522
562
483
410
561
586
668
320
688
367
740
551
344
493
699
698
425
471
574
695
391
449
558
574
757
132
744
566
724
531
505
554
675
435
484
781
752
486
676
471
557
525
463
130
473
736
435
503
479
593
500
357
558
754
506
386
608
471
706
418
474
551
605
451
484
504
770
764
393
578
538
780
306
679
518
1006
422
646
491
578
658
388
536
567
620
451
443
465
680
534
308
583
698
615
451
488
480
646
155
529
111
819
0
490
496
781
648
320
656
633
553
395
645
350
838
542
373
533
736
493
454
524
462
696
490
480
488
680
558
472
482
746
856
276
504
784
661
507
481
455
753
426
389
578
646
473
586
15
872
636
41
624
326
625
632
288
626
685
823
440
699
461
829
460
399
416
537
660
442
59
1018
223
645
472
799
543
477
693
432
693
560
249
520
507
604
70
572
421
583
486
801
369
779
528
516
495
487
485
411
457
609
646
460
435
457
582
539
476
492
538
592
395
500
576
805
460
423
432
624
599
499
478
678
501
490
675
450
617
530
440
374
696
388
490
511
663
524
414
523
487
576
416
474
485
581
464
447
545
543
616
478
425
642
623
365
509
477
710
548
374
510
632
545
378
416
645
645
321
519
476
820
443
371
579
733
438
591
450
682
1023
106
475
0
635
0
761
305
1023
512
327
578
551
550
390
613
405
645
460
392
565
590
502
352
467
648
485
492
379
473
697
429
326
497
480
761
255
517
611
534
484
578
423
667
570
432
585
624
691
434
698
570
374
342
426
540
663
458
542
584
733
460
518
316
712
478
437
520
565
699
495
214
532
562
498
373
566
548
552
462
490
488
790
455
390
642
568
761
503
671
652
720
478
447
502
765
470
546
563
662
602
449
497
817
500
686
469
585
700
416
465
481
714
614
477
445
652
676
421
497
478
456
521
543
692
696
814
447
605
504
663
138
699
417
565
400
0
517
765
628
233
502
611
622
509
441
640
471
519
0
652
633
509
569
480
642
489
415
432
383
689
662
427
569
599
474
537
441
303
948
388
482
577
696
429
403
482
591
499
369
700
507
544
455
443
478
698
332
474
463
667
553
451
516
655
520
593
435
474
620
533
481
425
699
447
458
593
599
518
456
536
374
704
543
370
564
708
442
509
639
529
634
317
599
321
681
534
471
500
670
482
430
454
503
704
270
509
563
595
434
480
377
777
410
193
539
642
591
348
474
684
620
430
485
442
698
442
486
479
521
634
413
535
479
869
276
493
636
651
552
505
526
699
426
569
519
469
664
489
313
639
514
699
319
665
768
379
519
423
558
510
437
462
727
476
401
324
976
560
549
427
486
159
788
317
523
1023
279
435
562
389
537
568
416
637
348
596
656
459
392
631
520
582
479
823
506
385
327
787
666
452
448
514
605
362
382
521
591
587
453
528
467
691
424
692
448
496
587
620
582
510
567
497
483
579
729
415
436
394
709
536
301
608
638
466
697
361
546
640
494
420
508
625
458
623
586
599
682
387
400
646
640
379
477
498
699
509
414
395
594
668
309
472
674
726
319
473
500
606
488
490
461
598
661
473
523
605
650
429
486
510
693
474
464
520
554
610
187
635
399
743
447
514
533
546
417
701
443
683
500
429
546
525
592
383
491
488
556
488
468
503
525
767
218
628
532
616
320
490
342
1023
447
421
609
540
492
378
538
484
606
796
400
508
580
509
404
673
490
499
636
500
488
563
487
335
656
568
475
453
465
575
422
638
514
431
581
474
359
465
695
545
454
424
576
624
594
464
634
604
428
505
421
547
572
425
432
790
571
476
500
585
562
496
462
582
806
441
498
472
617
606
427
459
562
708
336
460
405
656
488
655
498
499
531
494
405
559
644
495
351
530
668
498
582
538
547
549
392
344
654
496
314
593
502
587
437
536
441
519
686
325
564
480
524
699
262
508
627
403
455
500
604
444
386
589
555
570
374
495
104
843
789
126
672
715
349
662
456
505
579
325
824
304
424
801
331
744
502
754
130
697
1023
338
488
602
463
486
431
216
1023
615
521
289
678
138
398
501
199
698
464
546
484
478
525
593
0
708
510
515
624
338
378
588
510
573
619
563
442
681
245
675
628
441
464
399
522
747
567
216
666
677
380
651
438
450
382
697
286
542
215
440
331
553
540
482
549
515
582
476
416
754
535
415
831
380
514
464
573
529
537
486
678
498
697
563
461
564
416
510
490
407
496
593
525
326
495
423
556
699
382
515
653
438
498
508
484
558
589
495
495
731
417
413
438
513
445
732
468
555
591
500
331
495
671
470
411
534
615
465
406
669
518
573
445
350
544
772
462
549
549
490
634
501
510
458
832
477
457
536
614
873
373
502
386
808
371
508
530
611
398
477
523
617
464
559
426
759
494
511
481
492
843
454
472
570
609
477
473
552
608
572
419
544
575
567
518
593
537
714
461
545
437
676
495
342
553
673
546
367
554
479
686
452
499
466
633
548
413
507
745
507
546
608
506
599
451
458
658
546
588
491
436
708
583
448
415
439
750
363
411
700
620
522
543
448
774
495
251
820
523
647
455
419
579
548
498
463
558
731
492
346
660
445
606
454
558
428
540
615
477
499
610
570
595
587
484
754
451
412
470
680
434
427
536
457
919
253
470
569
700
419
450
517
597
477
475
530
689
667
427
505
462
606
559
430
475
637
502
428
483
580
499
474
507
580
637
508
351
498
675
510
422
503
633
492
386
494
557
577
454
484
454
697
492
528
477
510
490
556
515
467
683
434
609
410
520
612
529
487
584
477
524
462
503
698
437
415
541
622
482
587
444
631
594
381
527
595
640
447
510
481
589
459
494
410
686
520
413
573
611
532
495
397
500
555
694
441
500
711
374
436
482
554
757
454
475
460
505
740
488
482
680
480
354
615
526
615
672
606
563
649
417
436
585
569
548
444
568
515
617
453
454
481
609
537
513
476
625
562
413
567
552
595
448
477
527
664
476
558
483
511
683
482
449
598
675
420
452
433
728
481
490
531
651
529
473
477
557
624
362
511
412
756
413
444
495
690
426
512
491
609
565
630
400
492
697
531
508
504
589
590
392
506
538
630
502
344
492
678
508
464
393
696
460
407
481
619
487
463
441
406
635
628
495
536
691
561
395
444
569
579
464
420
569
697
447
464
490
654
592
397
634
415
855
588
414
519
636
428
434
502
619
726
472
255
560
518
451
586
699
739
505
484
503
534
541
481
545
558
570
591
592
570
718
519
482
509
673
568
353
555
591
688
429
558
464
786
433
443
508
687
386
488
487
569
685
284
548
553
579
465
526
495
652
482
482
479
710
544
377
513
583
512
495
525
547
576
710
468
461
651
559
668
517
553
667
461
526
511
665
491
488
494
583
597
440
503
511
642
436
433
634
685
470
505
505
531
619
436
485
469
670
469
570
491
629
689
436
507
591
503
492
481
520
653
394
462
499
549
531
430
525
717
601
418
518
503
604
440
501
507
658
507
453
689
529
595
423
533
559
652
420
470
661
531
540
459
540
620
538
429
581
456
721
439
438
474
699
507
354
668
581
616
367
576
512
610
432
483
599
623
545
422
543
560
517
427
685
540
674
490
474
435
624
441
522
546
588
585
518
471
532
565
518
506
529
634
452
538
476
619
566
462
429
561
595
414
339
1023
519
507
514
569
707
546
546
367
589
665
305
438
439
649
645
569
378
688
577
442
556
517
623
476
491
427
616
526
502
497
500
509
504
574
512
685
475
392
503
619
505
478
491
657
510
0
499
599
656
480
497
442
648
418
455
533
586
495
351
416
700
684
432
521
488
560
470
555
524
627
563
421
463
559
540
554
449
484
659
457
505
525
590
452
485
453
502
696
490
439
466
698
442
426
519
591
547
473
495
622
553
442
481
418
518
695
463
496
725
537
401
533
523
693
369
658
395
683
574
238
587
540
489
530
499
511
614
138
633
503
616
552
460
462
514
781
432
494
792
648
411
432
531
610
448
439
491
647
642
419
435
632
586
446
472
494
569
485
444
503
628
598
388
388
157
711
265
631
484
534
799
445
447
860
484
417
505
572
637
415
497
503
572
455
480
582
737
518
750
493
570
661
407
629
428
655
497
485
461
651
500
440
502
588
545
447
524
436
776
461
474
559
567
515
477
449
579
672
494
498
520
662
526
388
562
651
610
450
502
582
646
359
591
441
754
474
448
509
591
521
458
483
574
672
404
544
455
522
362
447
314
754
551
716
530
602
590
429
531
444
646
448
495
544
640
533
433
368
511
695
417
499
522
638
449
407
552
662
559
536
474
615
762
392
501
559
897
377
627
551
607
315
442
524
558
690
463
544
423
609
503
513
554
635
494
384
579
510
612
444
550
594
642
630
493
222
650
538
603
588
620
608
427
480
538
625
444
618
495
586
503
494
396
812
599
411
506
512
527
469
472
437
856
617
371
484
735
562
374
0
576
622
519
516
477
733
489
389
535
554
535
444
560
525
686
562
684
511
646
549
479
353
646
537
307
564
522
697
484
464
494
592
538
480
573
685
617
414
509
484
608
439
532
596
720
491
625
545
625
738
473
476
481
634
521
386
508
684
511
474
406
556
759
388
525
539
690
450
471
492
624
516
425
506
544
607
393
480
538
653
418
404
741
641
438
486
501
580
522
447
535
500
759
452
489
505
577
508
451
489
639
554
436
560
469
643
452
464
479
699
470
439
614
628
516
427
510
509
684
446
453
511
679
512
477
467
615
549
468
510
535
656
485
490
607
553
577
433
548
603
558
490
447
534
684
408
477
532
607
466
552
523
589
572
483
500
503
632
477
464
477
747
533
353
580
582
656
446
483
621
592
443
446
468
617
487
363
591
556
695
442
516
529
654
414
457
464
648
578
435
466
621
648
403
510
509
641
463
455
521
648
607
389
646
556
550
439
485
556
624
464
480
467
617
570
454
514
550
547
627
379
573
707
445
479
596
570
456
488
361
682
539
438
546
563
606
482
471
482
633
472
442
513
611
473
393
573
511
624
416
424
502
551
593
463
549
697
486
434
510
560
689
496
402
450
740
444
477
597
802
436
397
547
560
589
436
492
541
634
474
517
475
590
573
407
659
506
647
421
457
485
599
521
466
504
609
541
520
446
542
615
438
470
442
813
493
479
472
610
656
363
481
603
447
352
682
88
656
221
509
439
528
500
452
505
1023
605
474
490
431
750
496
530
563
816
525
423
532
565
581
525
422
486
764
545
477
540
515
592
494
561
645
585
455
635
376
590
508
464
529
633
456
566
566
579
603
380
553
444
536
649
432
473
595
543
493
569
531
606
416
501
501
547
624
627
467
564
631
418
451
468
632
574
487
455
688
476
486
552
483
1023
394
527
550
682
389
526
609
566
395
697
676
482
477
514
548
511
628
435
498
469
697
437
700
498
509
625
333
504
571
558
482
548
462
685
598
392
519
870
509
487
503
524
757
425
456
593
563
400
616
345
771
436
401
984
359
503
597
622
366
614
587
433
631
492
669
332
521
441
815
362
666
443
678
468
442
319
599
425
651
541
670
605
282
559
213
674
734
464
599
554
436
489
540
635
400
478
194
546
700
391
393
500
964
343
478
598
330
1023
180
662
308
504
468
603
31
553
554
617
442
845
611
69
887
457
546
971
684
521
480
491
351
615
231
818
441
676
490
585
78
1023
364
635
699
285
450
709
300
556
497
250
531
505
430
177
833
492
412
313
551
659
372
550
589
533
317
477
857
433
573
457
0
447
617
440
296
379
456
445
203
932
773
514
447
274
870
295
387
432
617
664
128
544
656
572
481
402
406
521
429
564
366
575
563
453
291
681
657
432
473
390
520
842
245
550
549
473
510
501
459
583
673
377
359
575
536
341
448
576
800
383
575
391
805
444
488
427
797
505
206
832
678
504
285
491
355
844
330
473
464
482
518
301
318
766
342
474
710
603
429
491
577
401
471
484
357
1023
973
841
525
778
158
655
509
393
471
798
375
743
373
323
363
925
451
160
662
470
447
849
467
490
477
522
643
357
398
407
408
346
1023
206
624
471
838
438
450
19
974
373
327
567
564
610
376
754
462
532
16
725
435
559
911
337
345
381
536
238
829
318
499
617
35
650
749
347
613
684
420
285
853
414
498
1023
336
172
522
1023
218
783
221
659
514
0
457
643
382
637
401
704
476
424
374
580
430
700
217
528
651
543
650
479
222
755
362
397
770
671
574
610
413
628
491
555
249
519
413
481
719
468
506
491
641
446
602
568
422
343
769
593
428
610
241
853
461
488
454
626
496
296
598
462
635
329
970
448
612
587
728
481
717
583
539
360
482
738
449
472
507
740
391
532
570
617
646
404
473
673
543
403
623
466
569
635
136
717
644
467
405
578
879
749
337
504
484
655
444
350
584
698
599
324
660
595
486
425
550
376
837
428
537
497
564
472
430
354
635
632
325
681
414
649
513
468
477
688
458
395
558
497
653
434
700
307
660
592
508
442
829
459
625
525
777
707
271
594
354
744
481
513
516
450
615
369
493
514
659
464
390
653
554
564
453
447
634
559
362
694
504
627
391
488
549
566
436
553
582
678
635
347
556
687
505
195
679
465
648
456
570
411
675
487
518
391
673
736
262
633
490
625
616
491
476
433
768
286
768
415
539
429
561
430
663
457
522
503
562
481
497
700
696
539
476
550
340
607
435
499
463
687
496
410
426
540
612
298
755
421
575
558
657
0
642
0
504
607
479
419
0
680
691
678
347
670
703
434
631
343
768
409
496
783
341
715
692
348
502
625
460
526
428
333
665
694
387
489
590
564
672
426
622
564
838
388
363
676
699
405
53
647
672
358
550
144
543
177
574
400
598
662
311
476
296
658
438
597
409
641
494
543
450
519
604
515
571
426
583
586
453
432
697
501
419
439
801
590
321
547
464
633
514
418
372
619
610
447
492
531
689
188
797
555
654
420
514
443
553
484
507
501
639
599
503
524
424
473
692
302
594
719
483
365
616
659
500
500
473
462
638
309
590
486
693
502
385
455
695
630
414
409
649
630
229
674
526
621
463
528
429
608
722
343
373
785
482
390
395
547
720
519
502
487
562
451
745
413
479
697
406
751
473
597
500
531
536
489
516
256
636
719
442
542
486
495
585
474
469
498
364
995
363
443
644
761
478
311
536
614
687
503
509
474
698
405
498
469
838
435
245
688
629
469
454
374
553
790
332
505
545
539
574
389
454
701
541
329
647
527
671
467
745
559
769
445
641
491
560
444
421
458
698
593
462
352
580
717
514
359
798
559
542
444
494
700
479
471
542
583
555
639
445
472
702
534
608
527
776
523
74
540
573
619
799
565
629
698
368
596
300
714
441
665
561
362
610
312
377
599
497
601
441
544
563
623
370
543
570
545
655
431
290
1023
482
488
664
576
580
421
274
535
443
441
569
312
705
560
372
412
630
624
583
785
564
699
659
496
501
638
499
440
510
584
575
448
424
677
537
499
512
510
675
513
531
461
487
1001
264
616
553
696
378
493
455
517
625
426
462
703
595
467
414
467
842
272
584
474
653
407
520
579
512
435
620
413
522
587
533
540
417
465
677
474
525
661
525
346
647
513
652
484
504
381
618
507
461
577
688
522
388
548
600
558
479
540
514
557
596
444
468
576
656
446
454
671
630
406
624
467
499
700
481
697
621
606
406
566
562
657
310
619
350
658
503
508
592
568
569
353
598
473
687
422
393
493
699
453
387
547
577
646
429
530
541
523
681
361
427
624
446
495
424
689
541
490
468
542
613
431
488
495
690
367
367
694
555
549
402
452
375
577
502
479
589
628
447
564
762
525
571
483
530
501
614
308
784
454
447
607
323
510
595
668
381
492
497
578
551
530
525
674
470
346
564
403
670
441
567
506
631
556
396
459
945
401
462
465
598
582
450
559
757
535
541
431
520
648
219
537
541
580
524
307
699
418
546
372
529
493
705
410
295
635
508
779
588
494
565
616
626
132
514
624
509
572
633
524
610
391
654
693
459
483
351
420
692
332
543
345
655
404
447
528
585
803
348
505
501
757
455
249
427
883
390
93
768
544
488
401
430
428
576
524
534
598
784
452
443
464
544
635
290
184
893
527
394
469
497
474
348
594
472
594
908
335
472
536
504
816
525
566
499
594
391
437
833
501
540
472
602
602
492
457
166
1023
445
524
571
660
602
320
465
458
584
426
506
613
557
472
365
481
663
782
401
380
495
537
560
311
513
673
425
519
585
723
685
233
943
595
535
487
448
661
593
436
560
273
886
275
369
531
669
534
411
363
557
759
385
579
547
653
552
426
503
546
625
282
1019
357
714
278
524
699
505
605
446
455
697
529
429
506
613
743
271
456
498
776
504
309
417
877
554
204
510
569
530
400
520
572
459
683
400
538
569
709
473
449
573
786
252
491
491
595
623
288
504
633
343
402
622
489
656
417
294
758
739
416
543
496
619
655
462
483
494
637
286
475
627
699
593
365
346
843
456
464
431
784
584
398
442
556
638
647
339
643
564
661
338
378
498
640
378
416
376
762
434
706
573
448
599
204
407
520
743
446
441
294
1020
520
86
768
627
699
340
584
450
736
415
451
489
633
646
256
455
647
548
483
418
474
954
352
240
586
602
288
476
475
495
769
534
213
446
458
656
266
609
723
467
372
652
482
378
374
207
687
628
589
333
296
641
463
187
681
963
396
414
762
365
677
667
525
401
769
169
669
584
710
625
540
258
389
505
577
492
381
875
386
231
552
633
517
405
399
748
423
364
486
506
833
440
377
477
813
405
588
253
689
493
418
539
445
668
415
490
364
914
458
420
495
428
567
554
435
420
791
349
471
580
655
447
627
453
628
596
514
349
440
1005
169
821
272
634
573
60
463
526
562
540
608
447
729
304
686
599
667
619
664
263
638
537
241
530
396
588
661
68
504
770
693
97
408
475
1023
531
451
743
616
546
18
698
597
492
468
286
698
1023
172
526
372
1023
193
305
649
600
352
411
553
618
532
500
759
658
467
558
515
316
786
473
440
536
46
1023
283
606
649
902
189
332
411
509
659
262
556
316
982
198
307
1023
532
673
490
230
1023
503
418
360
932
534
221
383
683
677
506
392
533
803
356
484
719
519
588
607
532
368
677
545
602
460
1023
466
378
498
525
639
438
543
66
750
498
131
620
363
1023
257
523
589
729
423
282
415
657
645
213
382
823
446
480
308
1023
874
274
339
610
529
456
472
479
698
533
397
413
673
427
441
215
741
458
575
0
571
1023
76
802
584
233
721
457
834
0
1023
398
317
832
681
476
435
1021
346
673
293
397
563
645
475
416
728
758
490
532
562
461
694
599
248
610
498
427
614
38
802
476
313
496
427
775
143
351
687
897
224
538
609
519
616
345
675
490
626
221
356
962
578
195
733
232
762
846
250
449
636
691
375
320
551
631
376
308
1023
330
487
253
612
485
489
208
543
478
1023
137
464
634
484
764
363
455
656
464
432
467
859
515
471
471
