498
477
864
512
322
521
177
638
371
548
460
712
600
283
589
586
399
664
370
571
504
184
378
843
660
620
344
516
590
583
379
933
528
810
393
353
565
613
598
527
562
741
1023
366
1023
586
68
1023
465
162
729
558
439
525
541
506
252
390
97
540
738
211
842
772
185
510
476
783
583
476
368
506
700
349
401
584
587
789
0
268
0
789
0
493
494
655
436
432
699
567
525
490
1023
301
732
1023
549
72
856
426
619
0
517
457
612
337
801
650
418
510
473
458
358
550
395
816
333
433
386
744
521
233
477
695
678
145
698
630
642
458
472
490
531
494
495
468
898
525
427
210
645
1023
654
446
158
879
421
347
237
1023
319
784
755
544
680
409
213
1023
540
488
605
467
727
521
539
216
71
1023
569
350
530
766
667
467
468
568
580
237
1010
197
623
699
388
609
763
485
500
465
698
548
223
794
134
703
248
337
568
730
552
238
556
634
600
309
440
425
602
498
66
494
0
552
0
477
98
0
494
678
455
747
570
95
550
1023
570
570
671
697
632
359
696
409
635
557
364
647
1023
258
407
550
667
642
0
502
445
515
422
531
453
729
617
121
738
567
649
667
679
232
585
502
64
585
0
613
0
695
626
702
258
1023
350
736
440
597
371
516
575
334
527
401
853
576
423
375
739
151
469
631
663
529
289
511
483
664
209
611
573
83
463
476
927
537
490
474
271
607
698
292
603
502
1023
92
483
550
663
283
789
357
735
603
402
461
467
740
448
538
350
858
377
288
799
747
463
247
897
264
855
259
678
760
583
276
468
435
748
538
276
549
301
797
308
494
579
632
433
128
1023
409
911
68
571
523
700
121
487
192
1023
315
289
677
620
758
214
371
619
586
679
423
302
632
321
349
544
752
488
256
356
446
424
469
494
466
725
224
517
592
649
643
485
485
681
482
726
464
413
1023
252
284
451
736
411
625
497
552
483
597
455
507
785
338
363
574
86
958
121
542
617
579
390
565
522
788
482
605
469
896
356
518
442
623
781
215
376
696
636
362
585
652
532
708
356
370
544
631
295
360
674
563
799
450
370
699
588
416
610
561
723
344
462
459
662
490
445
173
737
189
1023
2
803
1023
428
431
384
539
419
536
557
616
696
218
436
837
799
336
569
497
666
421
370
458
1023
518
383
408
387
312
484
498
450
732
532
383
518
834
641
325
441
735
496
572
435
747
661
351
515
566
799
471
429
619
567
462
416
542
476
656
413
498
484
757
562
443
494
573
696
278
312
608
748
499
372
787
738
486
424
547
640
481
495
367
674
798
366
573
493
532
671
288
273
1023
399
545
733
697
717
417
438
522
646
480
288
1023
422
1023
286
454
477
443
637
441
590
602
1023
59
923
633
402
466
642
197
759
758
0
1023
430
446
903
0
604
604
790
385
660
0
699
471
305
1002
672
524
601
587
636
267
455
227
844
447
408
617
507
788
534
211
1023
454
225
698
651
545
441
512
1023
111
620
111
630
533
587
342
376
676
635
452
492
406
591
409
353
503
675
1023
56
634
563
735
350
779
282
848
459
437
484
524
680
365
525
538
710
337
248
614
182
1023
336
352
755
718
300
279
441
697
422
394
727
448
566
453
479
518
676
361
452
430
728
476
608
614
659
451
472
465
673
527
449
409
514
900
122
556
700
559
541
309
568
650
469
371
434
379
1023
411
453
491
719
371
302
260
941
501
295
594
547
500
356
508
514
746
499
245
546
601
616
381
537
718
659
329
429
670
560
743
297
363
528
776
380
379
448
620
523
323
765
484
499
502
551
601
560
516
412
501
735
498
362
504
718
467
437
480
531
658
179
483
671
735
430
597
559
867
481
300
541
588
456
554
558
390
750
461
452
517
649
402
538
649
689
289
571
410
333
949
353
394
590
589
533
253
491
648
744
242
446
435
698
223
474
558
92
483
210
461
1023
505
0
634
415
806
403
658
317
624
401
641
389
694
541
327
497
810
391
788
517
446
666
656
170
641
596
452
699
299
697
733
212
744
372
677
563
241
686
770
693
93
850
193
609
469
110
888
624
464
516
442
811
486
311
545
658
760
345
484
548
578
479
363
655
605
476
296
280
480
291
270
124
531
736
432
502
696
1023
500
263
449
734
409
432
556
499
661
424
330
482
731
598
381
438
616
642
427
635
508
391
540
391
678
580
480
544
540
437
638
502
387
534
901
291
408
465
510
667
286
313
584
724
276
422
796
616
395
421
608
681
577
361
576
561
543
294
652
456
694
995
559
720
600
659
488
292
598
673
211
604
482
289
979
329
479
624
543
310
176
1023
541
301
684
521
528
416
384
454
698
728
199
406
805
636
0
865
440
701
498
329
455
534
536
121
854
477
534
435
690
467
772
452
458
554
584
615
252
528
431
699
353
663
677
596
577
676
362
699
640
342
511
457
1023
385
421
626
666
522
210
677
785
566
431
331
749
658
340
510
609
616
445
399
541
693
465
515
445
643
631
538
634
461
776
672
368
699
733
510
454
512
266
745
91
677
532
441
1023
63
702
575
500
235
615
693
473
441
445
579
876
186
430
671
570
389
759
345
776
607
493
447
394
588
80
822
369
843
622
20
1023
388
481
751
355
332
610
396
532
245
908
369
454
660
618
716
383
389
537
698
312
547
535
910
477
197
541
367
1023
154
367
736
221
960
337
411
775
475
554
388
533
1023
455
555
598
447
1023
468
634
900
466
578
529
464
807
644
463
385
705
1023
226
557
771
543
239
329
696
501
567
466
441
737
538
313
535
682
275
202
359
912
747
290
606
678
537
513
491
532
741
391
511
474
525
448
622
437
549
673
472
415
529
624
310
517
462
719
590
506
347
698
528
554
433
445
823
411
287
697
571
564
578
226
422
481
55
447
473
660
507
477
444
574
759
400
451
840
625
533
491
548
707
554
338
166
513
783
449
639
482
722
446
290
398
757
421
369
450
630
433
275
467
517
588
427
401
614
1023
374
523
318
649
480
431
472
529
601
699
495
329
673
463
819
183
687
467
274
926
459
759
446
727
220
661
545
387
537
618
595
419
404
533
768
272
494
388
844
359
581
400
639
661
147
476
1023
521
447
499
437
544
392
592
466
699
673
358
454
347
708
399
561
484
1023
401
387
478
524
688
328
468
641
694
395
452
483
528
505
650
462
698
603
295
580
513
693
370
524
503
601
485
497
277
1023
559
449
278
590
517
405
477
574
577
503
577
302
783
518
411
484
493
556
403
362
431
1023
390
358
509
558
784
219
398
398
900
465
771
468
133
595
128
388
1023
778
489
822
429
570
494
364
530
334
497
304
796
305
778
487
524
568
485
418
339
751
504
1023
438
250
664
562
88
828
540
779
712
707
857
669
707
271
291
606
419
488
659
696
593
477
433
474
571
606
354
487
960
619
454
316
641
693
352
427
509
729
444
392
494
656
846
346
440
469
772
431
413
647
670
517
439
459
618
664
213
601
325
707
486
477
615
682
439
459
592
598
560
328
418
549
570
494
453
633
896
383
508
495
478
831
409
390
649
841
424
376
661
697
307
328
700
696
520
551
547
333
560
674
377
630
756
469
442
359
661
530
322
641
796
475
595
256
693
753
485
20
432
636
319
697
490
778
592
255
425
339
763
494
551
300
799
173
72
410
548
697
382
743
525
591
319
400
267
876
432
355
420
445
603
593
356
662
699
489
454
630
645
525
473
363
727
641
382
462
531
1023
390
441
450
608
412
522
463
507
699
457
503
508
582
524
463
476
750
596
386
502
541
767
18
581
545
384
426
447
462
545
774
379
747
673
668
324
546
493
752
437
579
680
684
415
516
675
548
592
349
344
526
315
1023
287
540
875
486
243
535
532
92
623
493
763
849
611
441
679
724
739
413
400
807
520
463
519
507
503
259
877
98
845
443
634
257
518
608
300
550
697
502
446
26
598
487
606
228
499
458
848
104
537
458
565
437
526
514
517
644
556
294
296
760
285
435
699
701
446
486
370
1008
764
47
560
795
463
290
505
689
605
426
423
410
759
461
387
453
442
901
432
451
545
811
464
120
508
1008
465
396
426
593
907
25
511
660
831
326
421
510
799
541
341
253
788
540
544
461
488
733
411
512
432
697
608
282
406
522
1023
243
511
529
698
567
294
513
832
520
321
518
492
712
306
484
518
709
361
313
833
663
455
585
348
566
669
272
619
623
524
348
181
657
632
1023
240
571
469
548
283
508
684
666
479
471
474
544
797
346
497
598
679
405
385
516
556
414
522
627
646
441
398
428
559
618
530
246
994
577
501
418
458
543
494
324
530
641
688
281
434
569
585
542
525
510
545
520
402
433
565
642
312
450
549
667
418
597
547
700
520
386
423
919
561
210
485
572
748
430
448
585
584
569
246
538
645
584
228
508
603
501
370
485
585
377
603
368
411
619
580
312
744
479
646
462
369
398
1023
191
289
479
674
207
448
716
495
539
551
322
313
732
299
406
505
404
640
386
495
520
498
629
256
564
760
535
429
523
704
675
258
522
543
626
456
538
403
841
615
503
529
508
562
235
485
337
654
422
295
648
525
503
409
255
942
467
387
494
559
684
318
425
583
810
487
483
463
552
581
446
434
567
795
321
570
403
804
417
329
495
546
683
423
426
493
707
420
417
471
799
579
361
468
680
567
314
656
446
607
444
433
623
770
496
320
474
753
688
409
451
543
570
499
315
650
666
537
307
546
535
608
424
526
508
678
365
604
521
611
724
392
524
585
547
311
786
477
748
406
428
705
655
490
446
445
749
447
252
483
516
697
393
454
514
698
483
376
465
741
606
373
439
533
630
506
492
469
741
464
504
317
730
725
411
453
532
514
556
383
524
679
525
377
489
624
543
278
614
505
484
710
495
514
780
449
433
457
557
652
437
497
460
648
491
466
501
673
434
468
429
638
657
430
454
572
546
579
552
430
753
653
292
541
593
561
435
384
644
510
486
256
566
674
369
399
472
663
537
466
498
525
654
470
460
461
889
607
262
531
701
350
528
327
687
717
505
459
510
671
446
369
497
699
571
279
353
505
617
442
460
631
621
520
385
710
668
615
383
469
484
638
722
374
561
710
486
403
440
648
705
280
591
416
718
433
448
481
641
464
422
454
749
569
505
567
515
752
351
446
534
719
489
385
505
676
656
170
692
413
623
558
331
571
762
416
463
531
515
1023
282
484
576
667
290
457
664
619
606
373
467
699
531
355
465
514
692
383
531
495
697
514
368
605
531
438
576
746
744
794
389
545
423
620
415
415
512
709
543
326
533
551
519
731
324
556
698
313
516
360
768
526
419
446
527
621
389
606
504
1023
418
473
483
672
527
334
475
505
762
407
460
505
744
308
450
497
613
590
464
427
544
696
363
504
530
671
502
536
418
612
700
238
608
530
699
410
365
554
644
485
280
624
703
559
292
531
498
682
433
423
611
620
461
485
546
593
656
355
434
698
605
565
488
638
647
582
403
497
616
640
314
458
786
529
364
570
544
593
451
433
401
813
509
341
733
391
630
455
459
468
815
381
563
691
713
588
117
734
234
560
609
308
570
728
460
383
504
592
741
169
600
627
525
123
771
553
578
404
512
358
1006
312
373
428
700
650
470
420
416
518
910
661
468
553
520
398
498
595
407
752
417
663
975
274
398
662
509
537
451
435
634
893
366
486
555
815
330
510
621
697
438
456
623
750
439
480
657
540
598
262
699
483
783
468
453
438
806
376
394
515
610
639
263
481
590
681
464
424
397
707
558
315
531
498
671
232
541
370
1023
336
384
556
537
453
370
494
533
853
204
572
253
1023
254
495
519
587
464
540
377
740
693
445
412
905
490
340
582
479
573
495
487
423
526
985
272
566
451
698
396
377
617
536
683
413
461
806
506
338
571
530
781
304
541
435
675
582
379
505
793
644
166
594
501
659
348
667
507
516
616
288
606
665
533
557
551
356
801
461
465
503
645
510
344
504
634
553
437
689
475
693
357
555
445
614
629
411
503
426
619
613
420
406
729
522
433
455
659
610
435
394
511
870
417
431
527
698
525
391
419
749
548
312
531
481
741
150
452
649
640
523
309
430
632
555
597
500
521
650
421
592
397
801
256
565
504
700
490
465
347
908
480
366
457
602
573
395
466
484
674
543
491
392
740
750
195
698
637
556
481
438
503
560
557
410
807
473
506
470
468
377
633
331
491
530
587
778
212
373
646
731
312
481
447
684
455
448
682
483
515
483
470
644
677
353
463
524
540
471
440
530
748
529
201
723
483
678
483
526
437
726
464
372
613
738
564
374
471
571
500
548
577
427
1005
356
418
404
820
568
387
483
501
604
438
595
474
751
511
448
419
563
574
438
631
678
522
367
490
584
662
385
506
755
596
601
436
471
458
766
266
740
544
760
347
441
478
659
541
426
466
701
686
352
358
671
657
456
524
563
639
512
436
446
617
524
482
457
419
655
399
463
386
899
459
206
811
544
627
553
361
652
606
403
677
499
785
599
383
555
378
797
356
543
642
677
462
447
389
691
616
243
477
604
559
363
484
435
689
594
210
500
673
607
375
454
667
135
1023
179
509
657
642
207
602
524
468
376
764
434
609
319
442
521
477
516
900
253
752
480
565
472
395
957
284
489
441
632
364
519
522
598
553
253
565
668
501
596
313
725
545
652
442
555
507
675
300
441
680
433
521
335
501
579
435
622
482
607
566
459
503
483
713
428
528
477
677
414
502
381
739
673
325
487
614
632
599
231
672
673
462
313
457
796
690
226
517
626
519
492
328
285
723
467
399
491
883
561
384
523
607
438
398
453
574
676
473
308
597
805
509
484
467
464
753
258
475
504
743
383
411
500
698
422
598
422
594
534
500
456
364
797
357
344
529
780
463
232
596
590
493
550
470
503
614
541
485
478
566
909
313
602
485
706
404
522
703
662
487
351
628
696
507
328
679
489
723
432
373
581
559
441
420
730
470
544
451
468
484
743
308
548
483
615
418
453
541
769
565
373
467
474
862
360
593
470
588
417
376
540
744
522
343
409
541
484
699
409
506
716
419
413
540
782
538
338
550
572
651
314
561
402
808
316
530
377
781
578
87
596
526
698
335
486
508
631
480
305
641
570
536
477
508
667
483
916
451
493
700
551
441
437
633
644
352
539
510
852
258
468
279
1023
489
482
640
603
545
200
412
516
881
431
769
211
505
585
512
790
628
546
654
430
639
526
366
360
372
788
426
530
411
644
622
245
523
583
690
256
456
540
644
406
588
436
784
503
261
736
528
514
502
464
487
747
356
512
543
654
528
446
583
568
661
436
377
898
472
527
456
463
731
621
285
537
510
1019
246
430
595
689
506
427
493
684
516
587
464
568
556
388
494
508
636
449
404
600
414
630
377
610
493
572
360
400
1023
616
268
634
613
631
450
430
464
399
705
597
397
562
691
517
355
480
696
472
533
427
634
535
340
473
492
651
213
716
459
657
580
379
476
553
529
433
804
662
913
246
0
681
245
448
599
257
698
682
311
657
145
724
452
414
468
544
558
294
536
557
636
381
515
417
700
252
463
445
657
223
513
298
555
759
406
433
607
668
313
616
475
954
603
390
483
586
470
207
509
755
442
246
890
519
682
541
24
531
565
229
491
2
1019
653
385
592
700
732
672
0
606
513
638
495
476
526
1023
576
469
541
899
593
0
536
362
603
340
294
675
77
572
286
431
902
574
139
656
487
352
338
48
553
700
401
592
443
684
684
271
489
543
770
216
507
640
516
238
685
478
564
659
499
462
581
458
265
365
762
624
311
629
502
834
650
398
532
546
604
372
497
447
793
458
439
541
585
689
336
490
561
735
350
460
404
765
191
515
593
347
535
201
469
504
423
383
496
742
639
532
523
509
754
645
315
693
524
699
406
474
551
831
380
380
598
676
788
241
559
497
697
420
443
526
727
262
345
613
675
505
388
561
546
339
521
357
779
678
506
547
233
777
363
382
515
644
424
324
655
590
698
290
399
699
181
561
149
485
439
907
414
447
372
978
336
411
769
804
630
432
634
665
1023
291
498
440
659
307
403
509
751
524
139
572
469
597
168
453
749
876
341
482
470
765
555
52
695
548
593
497
398
733
881
283
420
624
548
465
493
556
481
319
399
252
505
490
582
432
569
686
626
136
471
541
573
347
580
625
673
598
684
467
787
680
344
587
461
401
383
89
433
657
361
392
625
745
538
589
458
402
1023
197
849
381
738
315
272
610
544
699
455
477
557
329
414
25
805
707
96
351
714
496
880
269
711
470
697
260
514
420
682
144
500
543
1023
260
504
636
296
190
358
18
308
767
417
275
651
717
538
555
363
521
597
503
484
485
930
351
514
499
999
542
548
475
404
947
419
418
700
541
778
472
404
518
1023
270
599
623
193
520
0
509
288
701
362
367
727
647
354
635
513
475
560
504
387
773
198
434
589
857
645
439
484
521
1018
69
485
566
771
316
76
406
694
624
454
611
589
713
325
412
1023
510
482
381
963
627
398
467
410
385
722
355
600
350
529
372
356
469
477
751
308
327
355
1023
231
527
475
580
592
392
292
783
464
400
439
535
728
555
280
504
560
504
369
491
676
629
503
470
1023
689
439
223
627
706
210
584
708
533
724
391
400
453
698
393
747
731
632
471
468
774
306
537
399
698
461
694
230
421
1023
607
526
251
549
567
528
308
669
326
684
1023
252
244
669
567
277
471
679
605
329
549
339
793
285
472
553
787
465
439
453
602
506
397
510
549
726
323
495
478
481
641
274
552
688
532
335
445
502
716
294
429
736
494
490
449
452
581
643
285
539
531
597
429
433
416
639
409
531
463
660
642
228
617
527
551
626
462
555
517
538
469
418
653
522
341
546
491
700
420
467
513
598
372
475
698
517
611
340
558
350
967
359
498
534
698
494
415
481
702
591
412
379
611
625
432
543
570
626
408
761
559
584
673
406
323
372
604
178
708
490
660
321
386
533
524
951
401
516
722
700
204
610
658
572
492
454
475
1023
389
338
604
506
699
486
420
592
682
530
336
511
542
508
651
434
527
698
453
564
433
814
438
389
537
667
543
426
501
428
845
294
553
342
1023
411
508
448
639
560
334
453
531
699
397
440
644
589
401
396
613
543
609
374
328
762
599
469
429
393
700
608
280
526
701
559
281
480
436
698
415
276
699
647
597
317
545
752
521
512
450
501
675
426
502
608
692
439
424
553
603
699
383
362
575
643
413
463
419
735
458
450
545
661
620
289
704
395
635
400
371
611
445
565
468
464
620
546
433
448
723
646
466
313
777
610
271
337
640
594
656
348
499
476
720
381
442
442
457
704
13
464
648
666
350
509
508
627
343
412
502
545
744
428
395
583
452
362
317
713
786
264
524
810
745
158
790
471
1023
193
891
499
467
706
1019
0
798
751
360
755
273
525
523
311
517
539
618
611
339
447
767
699
395
436
792
473
831
234
606
762
623
281
676
486
532
417
652
463
659
375
493
555
627
357
421
500
663
477
131
924
463
826
362
373
552
471
341
744
568
743
423
568
501
353
581
546
431
781
665
283
496
446
737
499
437
567
539
760
438
498
533
659
259
419
677
512
504
565
540
572
683
373
496
475
701
295
630
352
674
352
644
478
462
777
362
407
805
493
438
474
441
752
495
367
510
631
535
365
461
479
644
415
584
467
789
433
508
449
694
637
354
387
632
685
276
462
516
649
486
396
622
560
552
481
274
700
645
333
467
515
700
582
473
454
654
500
300
432
591
545
483
349
463
698
395
494
435
563
534
599
501
432
680
435
304
547
699
483
365
653
510
712
247
428
523
855
317
552
452
1023
342
396
507
502
694
282
483
485
779
358
430
527
588
531
474
529
570
671
377
408
449
699
244
568
444
691
473
456
553
513
735
356
517
459
667
442
435
597
628
348
592
393
496
470
737
502
470
1023
255
556
516
241
501
217
784
563
732
297
596
844
787
259
335
591
622
424
242
1023
917
557
278
449
532
602
507
450
498
778
170
544
882
481
660
570
480
566
406
462
439
501
650
484
301
545
557
507
82
447
547
781
409
510
605
606
440
356
488
644
596
491
484
602
685
353
459
728
689
642
498
483
721
531
301
434
568
594
419
484
313
790
303
531
533
610
619
397
605
424
698
472
541
500
730
597
496
459
764
412
371
582
463
675
325
698
426
768
380
523
486
492
729
412
546
486
763
534
260
648
629
486
351
736
633
549
314
506
492
612
445
408
391
763
372
395
877
618
518
585
342
501
516
442
443
574
720
464
439
387
836
696
485
297
583
535
472
406
618
719
470
237
684
602
558
658
436
351
619
785
372
528
691
450
220
559
501
995
340
498
577
628
519
520
472
731
501
316
602
652
603
383
459
422
739
129
622
526
658
489
208
746
520
583
354
653
276
1023
409
471
537
615
454
426
488
615
470
594
384
379
823
480
317
509
646
493
678
377
781
591
305
491
451
571
423
452
572
560
476
484
466
762
596
328
544
527
593
452
448
585
673
582
439
554
590
480
533
399
467
573
584
458
444
673
447
434
468
666
606
369
509
475
730
451
456
454
726
383
658
476
643
700
314
481
503
540
502
631
472
728
491
471
414
679
500
354
449
423
862
456
542
519
638
484
462
361
651
737
300
543
385
922
267
505
461
614
551
407
520
689
646
254
551
144
720
552
300
620
602
253
699
403
574
575
449
448
510
765
350
568
456
551
608
117
576
519
630
329
361
453
684
266
568
469
529
768
325
490
893
446
553
213
223
932
484
543
474
651
539
415
471
627
683
386
465
455
699
180
678
349
907
428
862
493
694
525
536
313
514
591
767
469
318
1023
379
326
420
831
690
329
448
505
552
377
277
692
647
490
587
455
506
838
173
461
424
679
487
493
679
815
537
287
693
482
595
405
452
474
583
455
403
540
749
554
291
681
650
628
405
470
370
687
428
441
502
799
399
618
464
661
670
298
519
548
738
446
438
643
711
372
478
415
556
735
263
548
481
822
413
636
417
698
625
309
590
699
501
148
676
290
498
626
208
811
645
389
507
413
753
483
398
661
486
658
445
438
466
602
537
345
751
494
760
441
435
595
611
498
489
634
615
504
549
524
459
721
318
304
692
492
649
413
546
656
581
449
481
516
676
497
373
531
573
546
339
502
686
511
494
507
529
504
468
529
428
631
480
413
443
799
347
461
505
516
481
219
738
422
371
904
163
380
784
560
60
1023
646
761
374
253
798
674
623
416
493
493
1023
245
114
557
1006
369
64
1023
666
356
482
515
625
490
399
698
518
614
406
485
503
611
433
424
529
674
675
104
773
551
691
489
457
773
517
364
480
544
769
460
460
483
773
508
333
496
474
699
407
441
474
857
471
375
533
697
473
513
524
417
557
493
462
486
607
421
330
526
534
704
470
417
512
641
497
461
476
806
443
349
539
623
542
407
470
623
493
438
558
579
611
368
668
464
574
618
447
407
348
698
504
435
638
699
558
327
461
808
574
612
377
637
640
451
426
662
610
668
210
515
492
529
555
488
352
673
244
697
113
833
863
271
662
560
683
384
322
759
722
436
282
514
683
262
595
576
502
651
477
553
387
570
340
549
492
561
544
456
522
494
594
284
668
334
752
486
644
491
654
432
485
693
629
500
507
487
499
587
459
384
755
560
737
349
493
687
509
372
280
599
602
626
340
538
696
453
452
449
709
613
400
414
516
624
439
500
487
683
477
320
744
522
592
493
476
549
486
481
555
414
727
428
450
487
557
747
279
581
571
658
457
518
437
482
818
309
482
496
749
0
896
201
807
696
358
572
589
299
512
320
1023
460
612
456
395
867
414
432
468
723
454
458
420
715
628
306
497
486
640
450
432
525
649
448
366
711
511
458
537
479
415
559
689
337
457
1023
344
513
468
557
639
263
611
669
587
686
467
461
681
445
462
457
686
547
546
242
658
636
487
434
438
632
663
337
495
622
602
416
441
634
717
498
443
548
485
751
316
582
717
668
482
583
494
533
480
474
750
700
672
399
455
523
609
442
491
619
511
472
447
751
640
461
569
458
267
729
686
367
522
346
516
303
504
678
537
477
403
815
601
216
560
305
996
490
447
507
663
490
449
494
310
530
639
448
469
515
329
413
509
658
286
377
541
699
455
461
597
462
749
324
503
791
507
525
402
550
517
622
433
600
484
694
307
583
550
665
696
538
489
560
574
421
299
689
402
395
275
494
627
587
426
345
702
630
363
462
641
222
420
262
517
619
222
820
77
605
650
315
698
487
423
530
320
727
508
597
478
609
502
659
396
531
449
663
472
416
419
640
473
506
654
628
500
395
435
486
333
567
88
274
657
625
22
635
273
664
280
403
474
573
505
556
511
615
648
212
527
678
593
662
394
415
683
754
546
368
697
681
452
487
656
562
77
735
544
694
430
753
613
534
599
446
645
624
668
405
534
633
385
473
443
511
555
556
412
515
648
672
231
464
490
670
476
441
627
683
462
679
644
522
653
359
289
612
312
507
247
277
666
530
472
564
301
607
337
478
621
328
700
404
643
691
367
619
376
557
655
426
424
518
298
525
363
665
674
357
398
358
538
648
426
535
479
546
438
368
647
640
627
321
627
471
551
305
438
550
744
551
416
291
701
392
530
528
760
658
254
486
425
1023
491
426
503
673
601
338
505
678
630
396
472
422
799
403
495
459
668
487
657
438
764
666
463
469
428
776
452
486
490
797
441
357
673
540
631
332
750
430
666
442
476
505
798
489
490
565
576
715
309
472
483
885
310
490
515
694
490
414
480
648
759
319
524
484
641
509
439
469
828
587
415
499
684
715
234
658
462
611
502
554
502
674
458
446
471
648
591
353
567
521
599
471
468
487
717
501
360
491
574
676
390
551
549
724
463
598
453
731
506
504
705
924
613
640
566
456
623
443
527
433
730
440
658
517
568
631
315
498
507
671
417
521
612
583
640
284
679
524
596
420
391
532
624
413
491
499
795
426
533
477
575
583
453
464
495
663
446
422
499
689
494
421
635
511
691
450
436
335
785
417
429
701
657
463
421
465
612
615
490
459
480
642
426
466
439
517
392
516
238
952
704
475
601
462
537
410
370
698
636
697
453
429
492
583
358
441
698
641
493
431
769
610
253
400
429
421
758
448
515
620
565
369
665
389
1023
723
496
519
585
487
411
469
653
891
380
383
435
495
1023
112
505
725
514
215
600
387
733
225
901
367
697
675
280
526
494
456
873
312
471
1023
289
426
248
563
1023
32
813
699
470
193
351
779
45
943
61
482
1023
608
277
522
900
652
299
460
124
986
294
680
454
568
443
306
739
557
867
328
201
480
679
690
281
574
558
472
206
683
529
594
430
338
692
553
460
542
465
468
582
432
495
658
593
407
397
555
541
437
491
466
645
557
301
538
551
499
511
490
302
723
547
281
454
653
573
379
559
384
684
344
744
519
471
535
386
377
798
405
740
459
699
676
301
342
496
260
393
10
517
785
482
507
449
882
456
321
441
468
729
445
354
603
690
566
480
324
574
668
484
460
655
515
410
631
385
597
574
462
522
632
634
367
180
404
749
579
387
744
737
582
446
778
475
671
321
359
759
29
592
327
813
666
462
478
566
449
598
153
640
452
699
438
461
362
403
646
338
786
627
726
800
728
475
707
317
406
161
625
614
433
549
622
614
425
538
497
644
393
463
565
716
491
421
533
462
675
406
492
497
696
526
331
599
659
836
252
502
516
190
405
461
562
679
469
368
858
551
505
408
721
451
672
365
488
482
734
382
610
568
635
691
267
664
497
588
432
470
484
714
426
474
491
597
509
350
536
526
762
276
502
634
691
373
477
250
633
742
425
503
791
633
504
566
474
769
462
424
417
596
472
371
606
634
612
263
445
465
699
465
453
497
590
841
481
533
903
699
102
747
339
593
657
528
712
559
783
372
455
701
720
483
538
501
766
420
462
524
665
518
451
434
814
461
403
377
572
177
417
473
476
595
811
221
821
417
1023
274
508
451
612
377
429
545
553
601
351
553
620
603
427
425
546
699
487
455
595
631
478
408
536
577
595
459
474
486
638
462
497
355
857
441
339
798
518
637
434
531
483
688
389
516
504
611
567
375
485
538
676
465
401
648
583
441
463
501
722
590
332
543
475
732
294
346
647
696
447
454
411
636
487
478
478
515
742
298
514
504
689
471
449
501
567
511
591
492
532
562
201
422
493
241
601
123
583
607
600
383
488
759
728
406
457
594
620
405
445
443
646
713
465
478
509
748
254
458
597
745
517
571
474
617
623
338
488
552
647
377
575
505
731
433
499
474
605
557
445
483
468
762
475
433
652
632
539
371
433
772
492
404
550
558
732
431
403
484
708
474
422
491
597
605
322
460
507
725
362
504
569
693
411
509
494
698
494
454
440
546
674
370
480
509
667
459
515
497
673
587
403
454
524
690
384
502
597
645
438
465
499
674
646
347
397
717
598
291
472
623
624
362
480
444
746
509
318
527
399
696
454
469
506
697
460
401
504
651
523
503
593
474
738
391
439
500
642
448
466
509
751
551
378
441
693
624
437
394
647
578
467
429
458
860
501
333
679
626
571
570
477
666
699
537
488
476
370
761
467
511
761
505
159
579
116
695
282
352
503
494
453
441
692
497
720
284
600
143
1023
38
585
468
690
453
443
433
448
323
466
632
299
557
837
373
237
987
502
487
554
486
628
244
557
506
600
777
369
441
720
753
0
802
851
403
1023
433
522
751
511
326
483
1023
492
351
541
584
582
282
745
609
827
101
482
433
641
402
416
461
558
293
739
386
420
659
480
519
502
506
559
588
314
467
559
426
560
186
835
453
529
490
878
466
290
341
636
993
314
220
684
697
468
49
1023
678
473
193
855
222
545
442
303
843
429
339
670
514
524
586
317
639
313
777
477
470
572
671
430
372
731
544
884
252
491
446
777
468
443
645
632
333
470
439
579
203
308
622
474
780
109
519
477
674
620
477
496
624
489
259
566
524
507
321
563
472
682
467
425
610
581
623
561
511
360
823
139
782
446
645
570
424
358
768
475
489
620
500
754
448
410
521
598
409
210
677
684
507
370
737
462
555
493
437
539
908
509
369
574
567
598
401
459
513
733
394
464
546
1023
357
358
556
749
496
361
497
513
616
403
389
543
781
458
526
454
548
699
442
272
522
699
407
537
549
653
465
413
499
519
646
350
532
453
637
437
495
504
560
668
319
468
663
559
301
501
412
563
612
461
553
681
367
506
456
653
510
451
539
510
601
436
468
498
778
439
455
524
706
618
501
361
755
557
483
507
471
661
514
450
579
700
612
457
460
433
723
316
487
650
552
538
137
584
713
813
333
525
553
543
302
516
697
686
553
388
472
497
712
322
467
742
565
388
485
536
663
464
429
520
624
751
348
429
432
745
385
550
470
781
454
482
450
657
521
436
523
517
709
452
354
667
600
498
398
524
599
460
581
440
480
916
431
470
497
544
494
475
481
642
707
166
566
454
736
596
478
535
752
615
319
484
677
518
456
647
339
711
482
437
568
698
525
451
446
503
587
528
487
541
674
434
501
512
581
407
473
569
621
522
380
432
369
790
792
285
459
400
356
239
431
569
1018
171
840
613
599
125
453
608
597
333
592
768
333
787
151
762
510
437
562
381
516
485
1023
273
432
600
613
409
677
212
691
428
699
569
585
367
459
556
593
512
384
675
365
675
453
497
552
902
515
392
527
625
446
348
410
783
730
487
364
639
607
549
348
387
611
704
471
483
512
655
479
589
545
629
511
466
587
651
689
591
680
368
695
98
586
415
671
699
470
490
775
492
440
456
488
504
504
622
536
677
587
316
569
607
799
433
582
433
632
431
483
424
854
544
405
431
904
577
504
408
503
678
437
484
609
636
455
605
511
462
651
348
466
494
704
483
402
449
697
668
489
215
721
449
305
467
425
627
516
307
535
800
689
362
632
491
632
370
492
313
901
390
443
563
704
486
329
523
556
786
277
519
268
734
248
538
522
339
602
276
476
649
676
410
541
530
532
492
620
534
650
570
442
492
527
693
510
447
504
670
397
617
445
655
507
429
552
549
607
479
460
768
593
392
522
472
800
464
653
359
717
575
445
512
500
622
522
446
501
656
631
368
482
577
769
472
466
649
728
459
475
553
364
546
425
492
608
554
511
656
398
566
531
692
444
638
539
463
465
648
601
440
542
697
531
453
383
414
689
487
346
447
559
720
459
440
623
719
531
456
483
804
541
420
633
581
581
589
409
635
626
435
505
343
683
520
661
454
512
604
451
464
583
644
388
448
526
433
503
178
524
537
626
491
442
581
614
315
585
601
510
579
97
717
461
677
418
456
611
637
489
104
510
689
548
317
695
490
459
464
526
540
672
456
468
337
672
639
450
617
483
739
280
356
568
758
350
645
437
711
631
483
745
534
1023
331
540
264
865
309
446
635
598
549
480
470
567
641
455
395
653
679
293
627
378
731
561
436
699
575
381
574
222
537
789
491
522
587
498
604
343
498
622
566
372
673
325
682
251
502
564
671
692
488
475
505
693
406
451
496
659
449
411
535
372
644
352
441
566
547
480
363
556
690
464
496
486
392
473
281
615
538
590
495
588
521
697
367
558
378
764
564
396
492
503
667
174
817
463
634
502
432
500
614
532
340
682
495
752
682
335
470
898
395
528
308
549
592
483
385
549
958
259
531
647
631
187
468
544
419
697
277
787
581
625
246
742
598
687
645
497
576
554
616
276
537
156
571
48
478
238
913
370
581
492
393
560
187
696
490
653
410
616
606
567
481
421
698
565
618
433
578
666
400
474
424
952
507
464
416
443
587
550
137
863
511
480
535
417
431
731
247
274
495
329
582
420
655
542
752
407
488
694
627
471
222
467
740
578
270
617
596
503
281
661
507
534
386
657
611
464
964
437
456
569
489
533
424
607
546
588
604
486
504
577
389
441
628
475
610
464
508
548
494
331
473
689
474
501
427
567
615
483
445
465
579
504
324
485
1023
442
392
468
378
420
478
645
469
698
528
448
414
416
938
429
633
548
595
619
225
819
633
456
405
555
543
822
305
330
718
527
313
629
590
1023
446
428
484
484
358
571
238
830
602
544
446
215
642
656
177
833
471
697
188
858
293
730
485
448
640
475
730
474
582
551
518
236
973
290
1023
525
505
497
347
565
376
666
499
668
356
509
490
464
380
816
432
458
662
541
435
458
505
492
698
483
482
378
749
480
522
566
338
753
365
557
485
528
499
567
435
404
576
599
683
262
515
623
525
349
630
539
568
565
535
412
553
693
334
460
782
982
411
555
496
648
730
406
275
727
586
345
378
670
849
458
658
507
650
564
257
664
607
401
530
602
489
452
418
397
489
741
464
462
533
585
597
364
692
468
560
473
400
600
651
480
457
544
499
397
435
635
893
582
369
548
356
497
382
427
606
990
379
342
573
536
402
331
697
625
657
487
510
392
508
620
552
676
725
545
236
437
458
699
464
398
579
822
464
336
822
427
621
245
685
294
587
478
616
369
699
564
609
459
571
621
365
412
462
626
496
713
613
675
513
565
486
728
569
242
722
424
543
615
492
552
555
510
290
634
481
531
440
510
618
456
658
538
547
552
484
411
508
554
576
567
267
785
498
530
478
732
799
526
323
524
648
627
374
455
638
734
469
575
562
401
631
151
529
453
615
433
474
546
545
664
498
367
741
707
335
508
203
832
388
360
622
630
477
461
551
568
441
498
560
511
459
444
405
544
469
552
512
276
698
471
495
267
835
528
516
309
326
660
432
483
553
564
575
301
610
537
576
453
634
508
257
536
472
526
681
280
469
68
105
688
248
829
363
651
472
528
421
810
546
494
551
498
518
510
409
406
673
465
480
660
507
396
695
656
611
702
231
582
354
804
533
511
479
642
480
615
520
608
650
551
502
474
700
486
469
381
591
719
252
312
857
546
420
495
494
567
512
495
480
487
564
420
533
572
811
361
563
510
790
504
447
472
559
597
524
471
662
567
444
404
263
803
506
428
685
577
507
468
343
706
605
402
515
431
808
407
425
426
773
581
369
584
612
475
513
470
501
613
577
517
462
558
705
400
495
513
534
594
405
473
789
465
521
617
512
527
482
431
642
573
549
448
533
671
361
363
619
466
599
393
647
523
639
486
456
405
741
412
696
539
521
514
423
416
520
563
602
467
392
671
546
273
557
599
179
660
483
485
692
444
500
301
623
389
618
448
661
623
382
276
608
531
341
731
201
649
437
357
723
492
487
516
571
394
426
767
635
418
647
520
187
530
440
694
382
400
761
498
346
504
652
537
399
422
558
741
485
670
645
699
638
366
384
449
516
773
437
673
610
567
323
412
592
492
699
502
453
645
457
540
679
543
589
432
465
492
631
336
548
421
690
510
439
652
658
559
384
681
501
465
483
639
564
533
478
538
500
582
512
423
568
527
766
473
431
570
568
577
387
574
689
511
455
543
507
531
442
503
410
656
416
484
471
698
503
465
456
370
802
436
497
693
576
475
460
458
601
502
444
468
529
903
345
623
477
659
689
456
454
721
488
652
309
362
634
403
422
474
727
497
391
646
646
407
485
471
440
473
426
462
498
754
336
536
552
532
687
446
495
691
641
498
381
481
746
459
491
496
629
596
290
536
384
741
488
477
440
622
483
472
536
575
612
400
485
554
602
485
517
470
688
443
396
478
632
658
358
527
705
511
414
505
395
648
568
457
322
760
547
274
603
213
681
493
434
505
657
514
392
606
530
544
474
549
537
555
458
466
596
558
470
542
490
598
416
582
649
382
681
438
512
466
538
674
480
494
686
521
477
478
501
698
394
405
746
523
467
470
350
635
537
492
434
544
646
453
329
575
549
387
573
469
561
612
520
452
552
568
482
492
431
731
522
426
421
567
96
369
772
570
749
493
493
456
555
640
289
439
904
518
329
511
555
556
405
584
405
659
519
389
545
730
505
531
434
507
601
488
536
477
633
531
358
473
751
642
296
642
463
657
389
507
721
546
520
510
408
549
512
426
519
545
578
333
607
479
691
579
351
611
520
497
500
563
513
671
530
436
461
760
467
419
524
691
464
488
564
505
620
503
422
675
657
458
442
544
616
531
469
528
546
654
405
499
467
466
569
402
474
594
615
395
514
382
815
430
502
503
623
457
374
457
656
713
388
537
588
520
419
500
440
739
829
379
517
738
536
328
482
540
843
404
547
456
684
455
495
395
760
632
496
490
429
667
283
697
495
715
484
434
688
573
596
353
617
401
761
432
648
493
888
351
491
548
459
681
461
542
397
621
485
372
653
733
442
438
489
634
485
468
468
670
477
500
638
407
858
358
677
479
559
660
436
470
551
543
389
605
435
695
438
572
541
662
670
418
496
578
549
485
479
573
493
457
570
441
659
487
665
446
527
696
512
363
387
631
478
459
518
689
571
417
472
555
650
440
406
623
569
452
529
533
401
728
466
551
467
857
465
571
610
663
486
444
494
556
539
463
516
514
518
552
440
495
658
509
542
511
507
619
416
469
607
659
365
554
423
741
478
439
594
582
523
467
638
510
664
448
491
474
699
455
363
534
735
435
534
471
527
597
461
502
444
571
565
360
513
640
540
378
472
521
658
464
455
510
698
490
506
384
653
585
524
479
580
651
249
765
371
654
449
484
442
756
171
742
520
599
537
634
374
532
482
617
317
495
657
669
366
458
506
588
501
433
541
589
545
398
585
408
847
345
501
515
534
546
516
442
777
511
355
389
625
554
322
475
605
599
384
470
542
586
429
639
568
471
771
381
566
421
706
467
487
608
643
692
552
432
628
590
114
608
609
600
490
516
585
457
523
489
488
718
571
405
342
712
485
398
699
427
536
633
437
384
565
745
449
556
345
773
423
396
468
662
567
463
432
487
563
646
445
497
699
438
542
395
736
514
293
516
759
659
351
572
530
774
226
480
645
630
465
501
560
640
493
489
476
502
754
444
501
434
929
593
373
756
539
591
419
306
625
606
458
537
479
703
352
673
474
551
513
519
397
506
700
492
496
624
480
626
466
467
764
569
286
676
428
530
558
472
454
548
521
608
542
578
773
394
511
378
719
438
508
478
491
644
342
497
763
524
388
495
401
668
467
401
507
814
442
472
479
530
551
545
510
645
586
375
767
293
635
621
229
799
520
637
462
500
482
636
361
528
489
694
641
356
651
512
589
534
430
529
583
485
542
475
512
567
585
313
710
477
902
679
434
666
645
300
662
529
468
501
482
630
486
444
426
504
693
462
390
491
657
486
426
564
452
594
526
427
512
615
471
485
480
598
657
421
607
525
619
435
554
445
634
582
411
532
643
477
483
466
509
721
364
500
567
622
422
522
505
607
469
440
546
553
571
345
637
521
565
584
312
510
555
510
406
500
541
553
362
567
559
686
438
537
401
683
483
450
462
673
596
424
557
466
599
478
403
559
677
573
434
458
770
509
349
534
549
696
252
511
556
638
441
424
528
554
650
448
425
655
663
449
401
487
664
434
472
456
605
498
462
492
618
567
422
524
615
612
437
477
567
514
677
448
393
764
542
457
493
537
546
487
632
468
651
661
395
514
503
622
448
492
491
576
499
551
595
482
688
438
451
680
608
495
482
496
670
503
467
478
631
550
396
510
473
652
466
422
618
652
429
488
494
503
631
262
719
474
547
486
480
544
517
576
331
576
563
559
472
516
372
912
375
491
484
735
451
388
523
543
540
504
447
487
761
406
521
465
641
520
398
530
527
605
546
360
573
687
430
487
409
626
547
443
516
616
643
425
473
528
586
383
685
517
674
594
443
596
461
696
339
488
414
662
478
407
528
596
496
415
496
652
505
453
700
409
576
638
493
438
630
579
395
551
558
553
407
621
456
685
482
462
538
615
537
442
621
589
569
495
389
510
764
414
610
604
691
491
464
507
630
659
416
475
538
543
469
655
392
710
492
494
529
469
627
493
485
545
622
464
534
458
648
577
348
705
458
652
431
509
477
630
379
505
401
634
557
505
109
572
723
437
495
529
634
427
481
480
557
611
448
504
557
533
387
487
488
650
386
505
487
610
507
482
517
515
662
439
540
489
576
490
444
492
780
507
408
533
517
696
371
537
531
571
585
315
541
655
494
506
454
637
575
482
497
520
678
472
405
469
702
475
505
532
591
483
624
469
521
629
438
491
497
580
501
411
529
699
543
444
370
609
693
459
454
557
606
461
401
636
579
606
450
464
502
527
464
549
456
534
712
295
536
492
690
344
571
481
696
419
395
577
657
519
400
553
589
566
437
407
546
672
492
495
591
536
529
412
570
533
564
414
482
465
535
502
488
546
700
579
342
492
730
519
464
570
544
680
212
592
659
659
535
473
360
643
607
451
477
298
615
484
452
548
627
523
488
528
521
633
372
511
436
647
515
396
677
512
541
486
463
517
700
441
440
500
548
497
332
570
697
508
497
670
481
549
476
596
446
631
348
511
502
634
552
478
481
554
595
390
595
459
677
459
445
505
787
451
572
438
569
531
308
546
486
647
485
482
345
611
623
386
692
516
587
493
428
420
693
634
431
632
598
522
340
553
530
641
458
568
408
611
454
412
522
762
523
357
537
613
596
464
482
509
539
494
444
554
485
591
430
490
564
520
493
535
415
547
644
436
553
570
500
398
653
579
580
500
475
349
617
661
481
521
603
486
455
477
581
821
385
526
487
566
441
483
712
659
542
467
565
508
580
501
431
509
603
493
499
653
503
673
366
415
658
509
392
484
458
844
380
464
523
659
459
472
501
572
544
514
496
355
591
688
442
531
481
650
501
373
493
725
368
557
375
573
477
582
498
657
447
454
496
518
672
407
659
402
635
425
501
663
732
578
418
490
457
674
349
541
454
736
395
231
639
638
568
506
611
417
566
492
341
582
609
514
377
697
490
572
488
378
618
734
462
511
495
565
569
393
475
578
433
462
655
515
590
522
438
325
566
425
470
428
814
367
257
588
452
519
678
521
486
678
488
277
534
663
574
511
492
616
506
361
559
342
554
596
282
621
483
701
334
538
765
477
518
473
617
483
571
473
422
681
583
246
532
448
511
743
440
524
608
397
332
551
643
447
614
491
509
566
146
659
418
474
768
578
353
919
479
451
576
535
509
308
629
397
413
830
324
456
763
489
441
497
522
768
442
505
427
711
433
371
650
540
685
420
561
509
587
500
584
614
648
492
489
558
532
409
539
507
587
581
368
517
437
562
375
649
478
803
502
410
276
607
223
640
430
307
725
535
413
666
598
552
355
497
512
539
311
743
442
604
484
429
640
539
457
470
537
451
521
570
433
296
738
500
506
538
582
650
364
471
604
680
366
452
446
646
426
385
557
621
736
247
317
537
406
431
616
210
745
482
402
475
609
607
356
671
469
782
296
563
298
595
396
579
249
592
506
538
283
629
404
816
508
442
584
469
515
781
426
743
142
1023
84
565
398
113
589
499
323
750
507
494
587
491
380
718
473
496
535
529
663
416
698
359
658
628
315
401
564
524
354
440
474
728
568
686
441
605
417
401
643
449
585
129
1023
199
703
550
519
312
576
432
507
469
566
469
571
505
224
1023
354
555
479
552
512
335
673
514
651
361
776
439
592
502
449
486
663
366
371
603
565
643
366
500
691
506
456
516
536
649
503
399
533
540
685
338
580
620
331
532
438
471
602
621
363
480
573
672
427
384
549
628
628
