CH1
541
801
362
265
694
453
609
332
508
755
425
251
489
654
606
441
330
455
738
400
311
540
658
542
268
449
627
696
261
551
727
576
492
391
485
840
476
335
493
642
864
161
522
475
707
377
300
573
685
425
359
703
731
485
527
374
544
646
390
311
540
586
650
262
464
813
583
310
496
454
619
448
407
614
617
601
373
372
740
603
297
454
533
648
383
337
573
727
366
430
473
597
702
350
391
575
539
390
440
552
646
446
281
303
885
598
263
539
521
676
375
356
520
769
414
319
493
631
632
419
426
502
710
346
484
354
690
633
233
336
611
713
637
293
568
752
180
655
416
744
454
290
276
1004
562
478
448
509
687
313
363
509
850
507
288
336
799
700
413
429
571
689
315
173
622
831
440
491
546
486
705
424
379
585
710
313
254
693
700
451
307
478
712
560
243
483
674
655
378
471
462
677
454
315
508
648
593
392
480
527
593
467
385
420
687
428
271
739
562
620
307
361
588
801
227
488
556
557
685
363
515
665
514
338
387
429
792
362
260
803
663
447
300
567
710
488
376
633
473
764
434
408
504
663
350
414
547
695
598
386
445
510
708
310
376
472
685
322
399
584
683
564
312
356
547
715
294
356
637
774
287
488
564
689
553
326
389
558
695
381
245
680
712
429
320
636
701
587
330
423
511
806
362
389
468
836
412
302
416
735
752
444
392
613
666
353
309
597
629
450
401
562
625
620
426
396
603
641
321
396
485
833
533
440
545
772
537
298
413
551
654
250
406
738
772
313
342
265
727
612
281
327
623
945
208
110
555
724
875
281
419
691
440
434
491
400
737
539
470
752
587
309
515
196
1023
469
245
434
656
467
438
392
482
643
628
104
559
543
899
336
338
437
898
287
398
543
618
534
73
542
713
609
375
264
572
682
311
229
744
674
381
275
653
709
540
336
464
609
611
586
375
527
708
421
318
465
685
405
715
370
622
617
325
436
483
660
339
406
539
622
580
362
520
617
649
299
414
481
682
537
432
357
913
469
272
417
681
608
324
402
547
675
353
446
278
851
447
432
407
691
622
304
403
480
688
478
271
522
762
526
235
539
743
623
333
368
508
664
362
335
506
812
525
318
436
646
597
322
460
415
763
415
380
529
728
442
243
503
785
629
332
378
512
617
290
344
685
650
652
342
427
622
595
316
264
456
685
634
362
501
686
537
322
378
659
588
347
346
527
787
332
140
615
810
387
464
406
721
576
238
500
483
719
446
318
623
597
532
282
529
822
549
267
431
638
721
432
321
568
535
341
377
500
670
465
536
593
503
579
475
215
617
680
382
338
426
865
493
351
423
553
761
263
552
454
655
522
281
499
640
686
358
421
591
645
305
180
793
755
415
357
405
727
576
151
656
554
701
348
370
560
726
413
340
440
705
590
321
447
555
679
260
304
677
762
332
387
425
756
541
328
400
596
694
310
293
728
696
445
340
445
678
619
311
358
628
685
368
432
368
804
439
428
557
676
448
369
431
526
797
304
366
683
723
307
398
517
671
596
241
687
431
697
153
400
558
720
333
253
551
647
450
499
674
532
661
270
503
393
736
427
304
563
614
619
323
467
555
671
305
427
451
835
344
338
347
745
626
400
419
457
632
219
537
556
662
413
376
500
813
543
342
473
551
677
308
342
600
690
477
332
683
621
585
380
296
575
734
336
441
488
610
551
321
486
783
701
255
476
520
692
375
262
773
644
379
478
376
877
546
304
465
617
612
397
474
386
653
517
361
481
674
570
305
418
634
688
79
365
679
658
554
325
549
654
503
338
310
770
597
338
458
551
719
395
358
468
726
596
224
520
670
681
288
428
502
681
345
162
639
787
434
426
430
604
600
379
384
506
663
555
328
433
725
572
293
450
643
737
340
387
539
642
373
364
577
739
438
454
438
601
637
241
507
507
623
430
316
519
686
564
217
554
633
757
300
347
540
679
388
301
545
671
517
337
454
678
622
340
393
509
671
418
375
431
805
454
220
486
792
675
314
386
445
722
406
430
593
708
548
339
455
564
501
425
415
508
666
452
347
487
859
497
353
468
570
753
278
528
429
659
684
331
490
719
493
313
427
621
623
344
543
585
642
432
362
531
701
474
261
526
640
664
332
343
542
612
641
298
667
673
496
316
369
776
593
302
454
527
625
373
314
562
755
510
297
400
685
563
362
362
462
757
485
377
516
673
513
301
479
591
648
335
295
596
657
341
371
686
648
379
451
433
685
591
236
539
591
655
362
397
532
680
461
328
437
668
684
351
391
539
683
423
339
581
571
800
308
480
669
596
312
434
625
494
552
329
586
684
445
434
427
737
448
559
316
514
770
450
307
590
732
385
351
514
666
481
435
508
470
673
363
352
353
763
457
316
390
806
424
330
569
542
717
370
355
467
680
411
342
383
918
606
270
451
579
686
196
479
504
735
423
293
493
529
585
565
398
562
685
302
365
558
748
461
396
488
676
555
344
389
468
784
364
448
561
742
372
409
436
728
507
402
435
532
759
299
209
681
712
428
290
508
806
539
318
501
511
679
260
670
491
684
569
291
725
635
549
357
483
564
668
210
454
570
725
395
407
456
665
570
365
465
583
682
309
329
658
748
365
414
387
768
548
437
427
587
725
338
272
503
804
527
336
504
684
569
207
374
686
687
368
342
611
711
365
252
629
603
770
278
578
622
628
428
261
566
722
357
294
689
681
552
299
482
543
669
277
362
645
686
459
314
546
751
472
451
490
610
633
415
351
513
631
516
349
413
780
531
285
470
595
723
312
387
480
698
434
320
518
658
636
267
470
583
709
341
364
453
845
310
420
478
718
470
301
493
570
759
410
364
475
645
394
309
660
691
503
391
455
660
645
339
285
458
756
469
398
467
734
451
319
465
718
602
301
242
470
655
414
572
516
658
472
315
432
641
662
350
350
504
685
403
274
635
685
537
298
470
593
552
349
420
514
592
468
465
508
719
473
321
479
577
871
122
444
553
713
430
406
506
779
491
319
467
596
678
300
441
342
773
468
389
405
811
510
266
471
636
588
430
452
569
741
439
289
551
799
464
320
490
675
596
255
426
524
826
389
390
407
828
429
415
456
682
626
340
426
449
658
393
336
619
705
476
287
542
584
595
428
383
561
683
316
369
632
656
529
335
528
619
620
413
390
529
738
436
285
538
786
486
359
464
654
598
365
391
583
676
337
386
508
759
486
364
464
620
529
382
346
581
690
291
467
481
652
536
400
507
641
698
366
386
486
792
353
356
505
746
385
427
480
674
513
426
331
592
736
391
346
516
667
430
508
496
684
634
523
549
463
702
340
426
534
640
514
349
494
551
1023
307
324
498
852
231
352
650
682
381
217
582
686
604
371
433
486
744
292
349
568
696
459
435
462
672
613
354
378
584
723
360
404
680
659
495
273
568
685
594
312
398
623
732
316
444
519
628
572
289
504
775
523
393
324
760
685
317
425
563
684
393
310
478
805
475
468
408
553
666
342
437
377
912
478
374
516
615
787
219
482
615
707
336
354
558
662
445
318
481
732
624
350
437
623
730
230
473
485
698
389
330
519
789
466
255
383
625
674
310
454
548
679
364
468
673
687
602
295
457
532
597
498
381
466
946
130
582
441
613
452
470
431
589
705
332
328
614
521
389
365
647
684
618
302
410
587
559
408
559
619
492
377
752
462
685
383
289
515
463
662
332
435
586
595
420
383
554
704
450
237
317
769
826
271
534
479
577
472
376
494
739
429
282
490
594
624
469
485
361
888
361
377
508
579
517
431
427
748
728
239
422
477
755
451
367
520
767
471
151
566
1021
462
471
432
603
615
413
461
491
712
516
326
472
567
692
436
376
387
702
411
375
586
706
403
314
537
758
506
357
447
562
756
411
272
561
811
458
337
370
777
617
138
674
521
479
382
517
491
697
499
306
440
600
478
475
487
548
629
372
350
530
868
451
320
466
731
295
631
438
598
807
279
153
529
578
555
258
528
564
677
546
495
507
763
260
563
437
607
487
438
496
736
511
401
400
378
1001
463
134
1023
698
470
273
465
566
595
338
389
625
724
183
429
592
637
750
274
316
847
667
384
309
332
1023
336
385
567
695
407
362
427
677
710
347
454
456
739
312
421
524
674
483
347
353
748
603
502
450
447
849
332
483
442
678
375
495
540
682
593
181
314
632
668
283
433
516
736
589
321
510
546
731
316
421
527
789
510
365
419
724
378
298
500
682
450
451
268
670
676
293
159
703
741
211
347
552
734
548
226
40
841
645
434
435
335
757
460
268
566
754
594
166
527
733
640
223
510
531
624
482
455
440
629
762
371
451
599
715
336
369
525
602
579
382
471
684
542
362
160
780
645
88
506
546
664
373
409
412
686
548
402
441
695
565
245
450
531
757
529
342
441
710
549
306
462
568
682
335
419
522
655
439
349
398
777
525
231
524
678
503
357
430
569
715
237
414
356
964
675
358
566
519
517
443
322
504
714
457
299
535
686
457
476
433
729
604
343
421
470
752
411
251
752
783
577
364
445
608
596
315
161
641
671
548
378
497
622
559
317
415
685
727
277
339
529
598
444
570
599
687
471
400
417
636
609
332
511
526
650
381
516
541
733
473
308
465
682
546
382
469
567
620
422
340
538
643
495
404
238
958
545
353
426
410
684
553
401
449
747
461
251
547
647
559
81
1023
576
661
372
431
528
665
384
275
401
754
576
294
412
397
859
290
403
531
686
518
184
526
636
604
280
451
731
605
583
348
529
626
416
266
474
676
579
359
361
676
671
292
397
544
707
421
303
573
616
618
383
514
642
727
315
434
478
709
494
404
472
688
551
374
423
532
738
67
566
510
736
444
346
477
572
788
223
336
593
717
340
374
491
748
396
245
548
633
604
312
599
558
685
323
373
572
685
514
304
547
753
540
287
417
627
628
69
702
519
654
446
348
482
619
526
431
594
583
450
553
539
602
724
474
289
511
543
547
375
388
445
863
341
317
641
686
387
202
754
664
530
447
542
498
527
376
406
475
916
306
449
670
686
645
284
405
544
578
425
433
605
881
364
369
553
709
534
104
772
572
684
311
345
602
634
365
362
541
729
148
715
497
577
674
373
369
436
618
400
408
524
737
496
305
462
664
647
312
296
550
691
450
332
509
765
432
291
557
629
637
416
357
464
682
427
327
487
689
505
342
354
608
668
337
387
537
641
363
486
551
682
498
247
551
644
617
296
413
477
770
401
375
681
745
533
228
461
659
592
336
389
432
821
369
299
535
733
450
333
424
808
458
457
401
501
810
408
304
495
641
672
248
482
729
589
353
369
393
822
449
311
686
737
390
287
289
944
658
352
513
557
677
262
443
518
684
430
299
248
838
609
370
574
485
877
337
312
462
714
241
412
1023
658
684
383
335
476
571
260
450
567
786
378
242
112
738
688
269
415
697
677
342
327
360
816
509
456
423
644
554
372
370
537
683
490
385
564
686
388
322
592
578
746
345
393
587
650
451
239
548
783
441
263
588
656
541
245
539
524
693
360
369
513
696
378
495
457
770
602
414
498
566
571
665
351
463
735
384
499
526
619
594
311
402
829
618
260
270
659
678
291
323
633
679
645
369
269
728
667
338
395
521
739
383
356
394
910
482
234
438
692
603
319
435
516
643
484
378
491
685
569
314
521
625
640
361
395
406
681
490
284
427
800
445
464
384
498
746
273
473
421
930
438
230
656
644
382
529
445
685
604
464
299
558
553
478
308
539
719
513
269
362
685
927
331
351
563
612
441
347
494
730
555
326
360
674
471
539
344
577
654
486
330
489
729
512
284
421
708
624
391
428
509
652
447
304
500
687
482
270
490
639
568
348
406
548
674
411
294
605
663
483
229
556
656
498
465
506
497
642
304
400
581
670
465
297
418
448
916
307
331
624
683
335
300
548
682
563
240
665
663
513
350
446
606
707
307
416
589
683
405
303
503
664
583
344
263
631
895
305
394
498
755
472
252
556
689
617
396
370
687
706
288
547
526
681
461
332
527
711
571
330
362
522
877
359
398
595
663
500
172
490
742
531
630
380
583
710
315
344
560
534
553
358
487
765
586
351
320
531
772
372
323
740
650
404
399
459
795
685
232
448
574
614
409
344
514
698
395
329
461
705
552
368
426
617
669
233
488
517
592
598
341
554
667
499
297
393
565
746
325
510
366
749
409
273
559
722
534
311
434
584
627
479
320
516
623
514
253
504
767
377
364
515
553
673
299
399
381
793
465
432
467
762
507
235
437
632
521
497
438
436
668
495
303
545
709
450
237
344
679
601
355
416
426
688
359
115
576
935
551
229
504
671
540
343
340
493
686
415
364
479
746
473
318
539
743
643
226
530
404
514
488
429
507
709
370
468
465
526
682
555
461
556
667
338
340
498
708
462
351
499
484
847
354
391
559
703
289
313
387
777
558
163
597
624
564
200
488
500
673
316
593
463
770
454
320
488
645
627
353
419
666
598
549
170
668
840
519
304
465
647
602
239
361
746
774
308
441
840
340
756
394
590
684
567
444
352
444
558
488
430
463
793
457
294
491
710
585
233
532
462
755
232
402
686
661
135
475
499
691
500
292
424
605
621
507
337
368
804
436
302
536
726
531
285
411
627
719
281
393
471
684
464
338
473
841
510
355
420
550
666
327
346
298
830
461
302
451
787
573
262
404
591
685
343
348
486
409
809
276
513
730
553
207
422
578
686
337
367
555
526
433
394
506
684
463
549
376
648
620
465
304
479
648
451
411
558
550
717
227
348
802
644
327
381
503
666
411
369
464
1023
514
318
447
653
761
307
460
556
682
346
473
428
801
582
152
552
692
616
315
410
552
686
309
378
499
785
359
318
389
799
708
261
500
616
684
229
359
450
722
585
322
119
899
548
349
449
531
648
447
304
630
705
442
396
470
631
754
322
411
530
651
104
422
775
849
408
356
428
681
535
347
424
566
714
351
300
595
684
537
307
531
662
645
344
442
577
720
328
357
570
716
419
371
333
819
515
348
436
671
698
327
304
650
747
335
437
635
854
576
297
431
615
668
300
398
569
756
412
354
509
759
617
349
471
586
664
275
364
674
670
381
364
528
743
433
482
353
633
709
262
353
610
596
392
431
565
686
407
537
396
564
657
228
446
514
681
115
420
385
781
473
296
442
616
422
514
402
494
684
378
370
516
615
549
365
460
587
671
372
197
545
493
616
395
623
821
463
510
68
1023
581
453
350
476
660
523
304
474
811
478
328
427
631
577
389
397
546
629
343
330
806
687
478
403
430
559
690
323
470
402
841
402
330
434
748
451
336
475
686
571
344
434
576
666
347
340
319
932
390
295
462
673
565
353
395
549
719
323
418
498
702
497
385
454
718
582
283
353
718
682
451
375
592
666
430
313
453
738
547
326
443
538
723
329
311
561
863
422
337
546
684
578
335
408
548
760
373
387
504
715
439
327
518
628
605
408
450
580
686
321
397
540
686
389
351
460
788
614
305
417
548
721
378
367
526
736
377
411
458
818
600
353
457
551
707
381
391
449
832
419
263
589
769
573
427
455
423
821
360
399
452
605
651
170
385
867
671
304
104
746
717
349
255
666
730
274
448
602
688
503
427
454
607
605
325
435
502
648
485
417
353
686
565
482
409
574
753
323
245
476
751
475
278
585
902
495
291
417
767
577
322
399
426
894
388
277
640
684
568
320
340
660
561
326
631
501
564
484
349
509
774
506
297
424
734
600
312
358
583
612
352
489
432
800
448
349
428
789
463
464
392
436
868
337
254
606
666
456
401
377
818
591
366
498
524
686
329
359
531
698
423
283
377
799
385
365
463
533
667
392
284
534
794
424
379
628
788
599
357
448
534
779
291
368
500
768
506
302
445
711
537
374
386
483
764
456
383
389
809
419
586
458
674
463
404
394
573
622
249
509
562
751
388
296
552
814
683
266
560
608
567
482
387
529
685
362
347
445
836
493
364
449
406
660
293
281
632
548
565
415
526
758
555
303
427
547
627
297
493
581
715
407
355
546
722
481
349
517
563
645
352
372
451
712
445
251
623
719
437
275
448
624
634
356
331
484
697
424
329
549
658
526
667
391
612
708
298
328
489
572
522
398
470
760
555
171
440
848
604
263
372
464
589
458
310
465
671
678
134
544
568
701
101
502
686
610
392
318
472
744
457
242
530
713
455
397
620
630
617
344
355
500
658
417
392
468
677
606
338
436
563
489
565
422
510
722
441
347
418
692
485
316
647
535
661
329
372
511
750
429
328
457
684
599
362
332
574
748
279
353
582
772
468
192
560
731
530
518
266
714
649
291
384
592
714
427
285
424
713
649
291
477
551
687
305
280
577
753
439
363
520
639
553
353
453
532
667
297
496
536
716
392
325
461
684
670
331
495
454
977
271
551
486
721
444
243
436
826
635
237
359
824
599
300
363
563
671
412
212
595
851
537
267
460
627
600
246
358
545
624
525
354
565
616
564
355
496
622
623
201
473
444
679
438
344
531
685
465
442
584
653
542
348
373
481
651
447
351
507
716
528
350
471
657
581
131
591
560
638
463
401
478
702
464
351
679
684
553
152
661
480
562
518
363
502
659
409
464
620
609
611
339
438
424
585
495
387
542
758
492
260
404
633
700
395
406
529
695
371
349
477
645
724
211
439
667
759
345
371
537
703
478
249
609
808
414
302
476
651
592
299
486
554
726
352
369
513
747
355
308
545
634
458
645
389
685
738
343
387
541
745
413
420
439
687
577
385
383
577
803
336
348
484
675
441
389
601
685
575
359
399
640
666
481
332
560
742
435
295
552
751
655
321
584
523
820
287
405
532
659
419
292
502
739
478
327
556
559
707
305
387
626
627
374
402
521
707
576
251
438
649
663
234
610
538
674
502
474
584
653
611
328
460
572
665
347
327
499
772
392
288
611
755
507
491
452
662
596
368
333
492
755
366
370
569
686
323
368
512
595
648
355
478
469
653
453
390
515
682
487
293
500
678
506
355
472
466
790
438
304
580
674
444
404
464
760
627
338
306
540
685
420
378
600
754
467
335
470
641
626
337
453
551
626
354
447
509
720
432
351
536
599
568
469
430
588
688
320
375
543
789
298
526
477
684
624
373
385
624
646
267
353
578
793
455
317
432
686
625
325
399
622
757
382
441
565
673
448
332
449
739
643
376
431
565
745
310
357
548
699
475
284
685
533
652
287
587
527
739
348
366
530
586
501
279
742
685
500
396
394
571
734
320
409
411
839
364
369
652
667
554
693
363
550
768
371
327
366
898
334
320
470
686
583
332
335
892
604
228
522
507
854
326
334
637
752
477
325
431
474
766
352
165
861
725
372
331
477
792
473
243
568
541
740
230
581
508
635
422
358
490
686
565
113
845
690
521
369
379
501
509
529
401
756
675
615
397
338
672
641
356
423
551
561
486
353
551
737
497
362
238
791
551
523
468
512
570
408
507
477
741
521
286
391
919
509
393
436
575
672
325
412
476
960
593
285
402
872
661
430
271
861
686
235
396
435
668
522
261
421
702
681
263
585
464
818
335
199
576
698
457
326
519
507
679
253
552
526
815
482
268
626
708
409
328
471
647
495
446
212
645
772
308
367
595
698
398
288
464
705
591
158
810
543
699
365
350
432
721
384
328
547
688
569
251
752
552
728
277
538
547
617
541
329
492
602
670
280
367
643
747
198
485
597
658
398
242
568
838
459
323
530
654
645
349
248
633
659
520
337
472
705
474
397
432
514
881
300
409
520
709
415
320
491
724
515
314
493
627
598
414
376
495
618
530
366
528
764
488
396
420
623
586
399
396
535
631
406
295
466
735
464
288
582
598
661
375
424
495
665
470
345
325
582
844
255
425
715
519
606
288
561
780
84
728
339
686
281
308
507
515
645
388
441
481
652
311
402
425
1023
534
200
478
576
513
517
515
376
625
387
402
787
582
338
552
403
612
318
466
475
168
861
275
363
549
725
372
305
471
709
569
385
447
617
688
328
332
641
751
372
290
495
499
453
361
440
685
869
247
441
515
656
420
309
499
683
668
280
512
540
686
197
449
515
603
536
293
430
696
547
363
385
586
674
298
411
557
662
447
267
450
796
589
338
441
565
586
368
454
599
678
386
377
450
685
604
380
459
522
832
442
304
627
708
539
294
350
937
602
309
402
740
561
307
408
528
616
638
239
522
699
519
309
386
573
629
463
384
528
645
438
291
379
837
544
263
550
535
684
182
685
384
638
495
303
638
604
564
35
766
600
597
372
268
558
669
394
459
515
723
445
76
584
688
633
379
380
529
621
337
372
432
630
672
307
510
639
579
472
307
499
627
357
308
640
677
467
285
409
746
606
324
407
547
680
400
365
500
663
546
260
433
664
618
364
426
428
814
223
497
546
629
546
299
574
675
656
385
446
526
697
319
376
491
748
419
276
529
670
580
357
420
631
688
229
407
645
682
417
312
544
681
617
315
473
561
712
322
410
547
727
379
320
515
833
500
332
415
647
726
290
344
534
730
387
315
413
881
542
326
436
606
712
308
281
629
749
387
333
511
715
479
374
494
638
570
476
388
523
688
424
321
484
704
550
302
491
659
625
316
205
569
546
546
313
556
699
462
350
352
671
669
296
403
430
685
449
337
545
744
508
286
432
689
715
288
471
549
607
397
502
498
663
488
286
442
627
640
338
471
462
539
654
332
499
722
492
324
451
664
603
344
370
567
732
417
366
513
756
399
238
649
565
579
541
413
506
684
302
365
519
707
469
301
463
649
685
276
547
476
810
297
345
581
753
449
268
660
585
499
473
495
547
651
257
496
442
585
812
253
571
745
593
341
398
501
718
348
392
583
631
376
409
611
524
782
364
340
482
784
374
278
504
625
431
471
443
744
575
331
414
530
696
346
341
570
722
528
281
566
746
605
263
431
524
856
264
402
591
594
417
447
323
850
568
371
429
569
543
456
337
586
700
423
389
490
680
571
352
461
510
722
417
313
549
758
433
307
526
687
465
354
382
763
626
327
357
572
671
414
264
594
726
495
339
436
685
576
442
313
506
616
454
332
501
722
472
324
409
669
741
277
462
524
656
433
327
529
745
489
319
465
658
587
334
419
545
669
382
288
499
773
529
308
479
684
631
194
531
406
866
442
326
592
723
377
231
598
595
586
388
441
554
668
332
294
670
608
500
244
623
656
634
369
234
517
769
218
464
429
784
612
273
447
701
591
288
537
510
774
382
456
555
568
579
309
428
767
687
292
598
456
557
674
333
438
756
514
302
506
652
587
237
520
479
710
317
495
561
660
435
269
407
918
483
312
358
740
733
233
433
468
822
431
262
500
760
615
287
390
561
642
466
337
486
750
428
327
461
749
523
247
492
542
825
305
390
497
730
391
464
467
795
507
206
643
614
603
393
355
492
635
325
384
641
709
561
300
466
603
574
430
363
537
613
443
338
535
686
503
298
544
701
463
342
642
534
665
405
380
519
702
459
231
559
632
670
282
425
537
707
357
336
439
745
446
336
538
529
685
314
312
756
601
354
373
508
661
563
186
569
717
492
287
605
450
668
333
386
598
651
490
347
538
685
580
277
500
539
541
537
350
513
722
407
223
620
602
626
472
482
524
687
273
417
495
723
438
303
586
632
567
312
580
527
777
333
362
550
674
355
336
546
666
631
295
428
644
744
182
577
587
565
438
479
406
769
586
244
541
475
730
350
395
636
676
387
270
517
670
571
361
480
556
605
397
329
470
769
411
338
459
665
527
504
402
592
718
234
558
502
729
403
373
466
753
559
210
576
614
646
232
372
564
558
512
317
468
765
410
239
297
738
766
536
416
536
729
185
435
532
731
506
317
412
599
605
276
423
483
817
402
285
563
679
556
431
401
718
876
320
325
542
611
406
353
512
622
543
292
438
708
545
367
328
600
647
203
553
412
887
471
338
414
653
608
329
502
495
686
326
439
499
793
494
332
380
732
603
362
453
535
684
320
357
566
685
463
246
466
774
563
366
435
499
581
502
304
553
729
441
188
448
647
603
395
446
521
630
349
398
528
766
411
403
430
685
621
330
340
685
757
364
408
563
681
305
426
508
736
607
303
480
576
704
328
387
464
749
414
292
547
718
661
310
411
607
668
324
431
563
681
306
675
458
690
574
344
452
556
559
488
329
615
645
395
290
475
686
567
258
568
672
599
357
396
554
680
398
308
580
734
594
335
436
504
737
267
370
581
761
298
462
491
704
515
310
473
608
599
265
530
447
788
511
323
518
706
511
335
379
672
550
430
431
507
675
244
495
455
683
519
398
480
648
542
275
276
605
639
463
354
508
740
470
321
416
628
550
289
402
537
685
383
283
498
732
461
338
506
682
508
320
421
539
684
348
419
458
776
592
331
501
595
632
364
476
557
763
362
310
595
665
453
361
429
763
553
318
418
537
796
339
377
589
694
446
212
551
685
597
362
471
597
689
241
414
549
730
416
348
496
675
565
295
395
629
668
529
285
584
750
414
265
481
655
533
407
481
565
717
319
377
399
945
375
300
565
666
617
300
490
588
709
244
342
685
652
468
298
503
824
560
309
425
596
737
237
359
563
667
510
444
519
687
563
329
447
560
673
310
474
618
720
383
354
542
738
525
323
411
553
746
336
292
648
619
570
389
505
929
508
323
241
613
785
154
508
544
729
437
345
534
564
455
504
478
545
623
350
294
532
649
541
255
759
667
575
311
509
653
892
212
301
618
665
439
320
578
768
419
320
441
722
528
292
443
471
656
371
355
543
714
562
256
495
541
789
533
515
587
687
391
280
560
712
485
385
475
666
649
313
417
482
681
440
315
412
866
442
287
758
632
592
380
345
644
569
342
456
525
764
438
310
432
742
625
338
461
546
682
358
351
619
642
555
308
544
670
524
308
476
473
686
260
481
542
634
450
311
605
684
552
417
426
558
706
336
408
545
622
469
243
597
650
599
381
441
513
815
313
394
506
722
443
374
502
652
617
337
416
584
748
255
457
537
642
428
376
444
827
544
343
416
543
726
310
403
488
651
587
280
478
833
554
299
568
499
675
296
383
510
726
460
269
499
748
626
265
429
602
618
397
387
468
765
442
311
550
659
550
449
447
585
749
300
327
560
662
614
245
630
703
421
383
466
641
627
176
558
500
651
478
416
466
750
353
449
513
641
612
356
331
342
806
376
463
548
593
525
384
423
765
473
426
479
501
685
387
320
546
741
437
307
415
688
569
359
418
570
685
354
362
516
731
492
341
502
610
514
492
415
578
664
320
357
513
692
506
304
495
595
674
381
394
533
742
249
350
533
704
472
243
534
637
563
438
449
568
685
324
331
509
626
496
318
477
684
625
336
411
555
665
391
430
477
771
447
318
459
717
543
376
388
582
651
497
428
623
712
437
298
497
547
702
368
456
585
695
289
363
699
570
628
423
488
700
552
298
362
607
667
308
429
637
644
411
413
490
677
537
292
529
640
688
315
368
554
687
428
280
605
615
651
332
405
738
679
275
399
483
679
436
401
493
739
527
312
362
680
657
301
313
494
743
423
274
554
747
506
245
521
749
500
502
337
502
604
467
391
511
671
644
293
355
680
628
442
403
553
631
403
269
507
776
371
389
448
638
617
191
683
443
652
497
408
517
729
494
359
412
683
719
331
398
475
801
393
353
529
770
371
338
506
538
844
275
356
643
661
325
389
455
773
413
317
482
669
603
346
425
557
700
312
411
551
753
445
319
515
685
529
405
485
649
737
323
382
508
710
396
373
516
641
649
367
427
511
728
378
409
520
698
447
435
537
687
585
191
554
682
569
565
407
565
818
92
448
477
819
615
339
438
507
714
341
402
553
708
438
323
517
690
582
343
450
475
754
298
412
569
686
435
466
467
721
607
382
534
571
642
244
499
552
543
530
353
510
774
596
334
531
496
649
400
481
514
661
400
399
483
660
609
305
598
586
660
358
136
561
683
414
269
642
648
643
314
483
676
512
373
498
528
666
534
315
426
643
662
389
411
630
627
519
333
376
788
324
559
344
647
488
293
547
756
359
678
176
732
603
345
470
509
601
321
472
408
643
519
548
362
587
610
453
226
552
684
308
455
581
518
738
399
298
495
686
334
340
534
702
512
235
595
660
514
358
459
593
665
378
295
619
688
498
309
290
720
651
243
528
534
685
401
376
564
732
466
287
477
722
585
230
541
542
683
325
343
567
726
391
292
482
643
608
360
456
350
779
282
417
512
814
415
236
438
670
662
345
496
558
732
379
551
578
812
390
303
537
728
474
273
483
545
709
336
368
494
722
470
300
603
681
582
325
492
621
668
406
353
648
707
558
390
537
710
596
186
536
541
663
240
407
590
737
242
574
466
676
568
480
397
584
572
465
323
454
491
523
237
466
700
600
489
602
432
685
290
359
524
918
496
290
329
601
776
278
374
594
986
186
419
462
832
482
420
344
682
773
313
245
751
457
731
218
513
671
470
266
430
786
372
421
461
645
491
364
545
578
600
394
320
594
713
495
180
715
616
550
206
554
350
754
457
246
689
796
348
271
504
714
585
203
391
480
722
470
251
515
752
428
294
484
501
669
233
375
555
851
404
293
416
781
467
392
524
745
668
308
456
508
599
383
236
633
755
498
269
433
681
557
377
503
546
672
352
346
541
692
351
688
540
653
687
339
462
426
766
338
292
622
719
464
310
453
707
579
371
380
571
744
316
273
563
601
454
324
519
710
546
338
399
601
729
222
485
627
670
469
312
507
675
438
423
423
515
699
351
318
410
871
398
161
931
655
510
343
510
480
756
224
478
606
628
465
353
437
636
533
450
357
587
679
304
312
683
659
371
280
514
751
442
276
476
636
775
352
300
718
629
362
375
491
744
479
407
527
575
602
420
412
462
778
500
203
540
946
525
365
489
528
611
367
369
471
685
293
715
496
725
500
400
387
564
652
478
391
456
683
444
363
425
814
549
290
381
567
665
471
495
473
631
413
335
562
716
461
378
410
721
556
320
256
631
730
451
250
630
686
501
294
479
622
668
290
329
520
767
479
380
619
706
395
303
426
634
518
480
386
519
683
446
433
534
679
475
336
487
684
553
301
415
568
631
410
371
610
727
427
155
691
658
542
339
439
571
557
342
379
661
721
400
363
521
592
615
355
460
561
674
327
370
678
688
415
365
350
632
538
392
386
688
664
368
343
534
724
407
416
391
752
541
381
481
615
642
334
386
585
683
429
358
471
720
571
358
333
664
678
420
374
561
785
387
286
499
710
481
368
524
550
651
228
409
678
675
361
334
472
702
590
487
488
579
736
411
368
578
595
583
271
466
668
685
410
415
565
668
374
312
572
651
413
337
620
619
504
396
498
631
642
339
385
659
694
361
459
493
718
455
314
474
613
669
299
374
622
655
324
604
510
731
482
408
430
557
610
298
394
364
757
472
292
602
713
485
317
465
618
623
419
442
511
683
414
215
618
696
537
430
452
596
547
240
557
520
709
401
447
473
685
368
412
492
602
597
405
427
456
691
413
351
533
649
536
279
583
652
702
255
442
502
593
469
283
582
678
570
330
475
660
609
334
379
543
671
398
408
519
765
475
289
562
743
612
314
433
549
589
473
355
460
820
469
370
441
677
610
256
464
624
644
326
377
503
684
478
333
461
687
529
443
374
528
705
421
374
535
686
461
332
422
803
536
365
428
481
722
375
334
533
792
419
409
426
664
775
309
414
573
685
327
318
623
697
470
294
576
670
516
201
719
576
599
432
353
536
654
390
323
626
648
569
351
464
515
683
353
376
552
713
438
222
425
773
534
318
469
553
757
287
282
655
737
363
413
539
600
639
251
546
589
645
428
405
541
684
392
296
524
661
477
423
502
554
639
163
650
481
589
452
418
468
678
530
327
518
587
773
305
434
555
682
364
308
515
726
542
395
496
568
738
321
544
519
686
482
313
412
712
515
448
443
535
663
348
379
554
707
399
353
478
690
502
408
387
678
684
277
385
544
675
387
268
746
713
512
306
501
635
609
362
396
522
737
398
357
492
753
509
312
485
532
689
374
364
520
711
437
376
529
686
546
335
505
657
636
342
407
514
582
377
344
591
721
445
416
564
661
573
389
391
512
592
492
355
614
703
490
326
458
662
559
394
460
496
602
357
509
489
702
583
283
520
662
533
388
411
541
652
338
351
634
686
437
285
663
637
553
263
533
470
788
378
386
545
792
428
335
335
796
511
212
848
506
643
232
495
415
637
663
309
403
731
618
256
428
506
683
239
538
684
566
583
203
566
658
458
429
536
565
688
304
234
526
785
381
314
528
684
505
370
361
709
785
340
366
624
619
378
448
587
504
775
345
332
652
637
305
399
551
711
353
421
495
680
578
367
408
646
837
274
477
567
755
466
201
739
614
668
334
437
470
802
289
401
570
751
452
310
497
686
567
372
450
574
705
350
424
551
681
394
293
547
720
574
294
480
490
777
352
405
535
721
347
117
837
704
553
425
481
548
729
299
450
427
735
463
307
451
759
574
398
484
570
741
342
346
537
707
355
329
468
783
551
230
568
655
540
370
389
628
682
421
333
520
731
533
232
442
641
660
283
335
733
769
347
291
463
815
460
250
559
495
820
142
759
470
595
421
400
587
685
506
326
435
556
683
347
473
670
723
289
392
475
622
559
398
355
598
643
293
247
679
498
435
424
463
862
464
337
500
627
643
359
389
512
690
392
206
579
616
569
289
289
680
360
397
390
581
684
372
309
434
779
502
312
491
645
562
354
416
495
668
416
331
507
715
504
340
467
736
681
290
413
531
678
265
613
561
716
436
360
535
769
585
340
568
438
597
387
472
535
738
513
287
404
761
540
387
340
632
664
399
459
525
674
465
356
448
731
464
513
396
631
666
361
411
556
686
448
318
465
686
589
342
441
553
631
429
352
476
829
484
327
457
657
620
371
411
609
587
387
437
465
707
497
186
659
591
566
475
458
516
667
345
360
529
726
464
282
461
787
565
403
393
486
729
276
464
512
782
502
313
491
684
539
424
434
552
625
359
472
510
733
442
307
467
709
525
439
363
647
636
321
483
606
748
465
195
598
820
489
564
388
454
881
285
362
642
708
432
331
486
658
581
357
391
684
686
300
316
591
732
452
290
496
686
555
215
581
566
631
350
449
505
661
424
363
529
680
540
328
478
582
719
325
396
564
718
400
336
502
708
501
290
684
554
650
422
346
516
756
304
401
413
731
543
472
435
622
737
233
297
560
867
380
303
666
724
506
267
469
635
761
280
329
560
695
542
294
534
636
621
376
425
657
758
335
395
519
612
426
307
595
608
559
314
328
824
649
316
363
506
737
316
548
553
565
569
437
511
573
630
297
386
452
646
490
368
482
733
504
299
347
775
747
308
361
382
810
327
304
556
787
483
337
452
587
682
113
455
542
552
344
582
450
709
395
402
462
597
588
364
246
599
718
322
507
504
833
589
228
456
744
588
331
378
532
605
368
380
638
735
505
304
528
637
508
372
429
549
698
407
339
517
715
471
325
495
626
531
474
396
468
854
324
290
664
819
405
255
541
639
541
241
483
476
732
319
376
579
702
450
247
557
820
554
322
450
576
634
321
383
486
602
704
281
544
708
580
313
523
615
573
396
448
534
785
443
304
432
688
570
347
449
621
662
349
350
553
689
459
193
552
740
618
315
442
551
685
348
364
466
842
488
254
612
687
565
328
427
588
670
299
441
594
722
419
359
495
575
748
375
515
565
675
282
222
785
738
411
298
478
647
546
365
601
566
706
217
384
588
814
481
362
483
666
660
320
355
671
686
302
297
718
705
465
422
306
816
610
403
471
658
666
314
374
524
832
445
336
513
625
608
329
461
600
635
323
235
902
748
413
302
501
665
529
321
454
641
670
338
482
522
741
402
491
426
688
581
391
445
565
686
242
446
503
854
448
377
632
687
599
334
482
513
626
391
434
586
700
394
271
551
776
462
284
582
541
687
335
445
296
837
508
212
514
896
570
199
468
793
668
268
395
618
642
402
349
494
755
594
104
687
845
634
378
382
501
674
421
183
573
646
652
225
557
500
760
226
521
478
776
392
318
523
730
478
322
452
501
712
341
456
526
729
241
374
581
745
474
344
474
509
491
513
464
532
599
464
382
502
579
545
473
386
604
678
333
367
541
628
345
440
627
637
508
302
471
660
546
310
423
537
650
417
237
565
624
513
420
443
650
639
299
387
524
642
449
447
488
743
449
330
543
641
677
300
564
553
645
237
578
413
754
501
322
480
696
714
295
399
533
735
442
475
496
685
471
321
687
568
612
273
550
494
429
551
383
468
778
419
237
475
733
740
488
287
650
732
204
416
564
674
500
367
509
679
542
256
404
785
600
506
327
794
679
457
80
450
855
640
470
349
524
634
443
362
563
786
462
236
677
672
517
358
431
564
583
338
430
426
958
460
206
277
834
571
230
357
683
713
423
243
523
642
543
143
736
638
745
321
508
535
567
283
371
558
739
410
296
504
546
347
555
398
634
625
300
355
518
771
353
14
816
661
510
366
389
663
568
422
363
604
722
409
352
500
685
585
224
524
495
684
288
435
457
733
310
426
383
698
577
583
481
588
657
225
572
380
536
582
351
516
750
683
110
683
488
652
331
432
643
679
262
374
510
685
347
479
478
490
826
63
846
649
782
399
358
348
824
563
459
472
577
618
345
518
488
740
541
256
455
863
532
556
491
541
623
460
277
558
1010
276
410
498
804
587
197
657
569
581
124
415
629
681
343
418
516
684
493
150
487
639
653
333
358
589
688
410
349
502
742
590
328
441
593
569
488
626
499
745
335
386
465
643
534
445
449
685
628
311
439
455
786
189
685
570
771
606
161
480
748
535
259
534
541
593
422
257
682
727
553
225
470
556
806
405
356
536
704
323
299
545
729
468
373
461
604
658
346
484
548
733
381
311
400
800
476
373
411
656
619
249
140
533
681
292
362
528
734
449
285
553
419
877
136
472
469
756
576
202
686
540
542
486
564
669
406
506
553
466
696
380
391
403
798
401
186
579
732
745
263
366
598
774
333
423
493
760
252
441
659
737
403
378
292
528
716
393
417
656
1023
514
283
398
751
533
238
648
576
677
401
341
455
501
414
361
519
541
473
400
472
440
781
406
307
505
625
476
168
774
710
463
270
419
843
618
203
786
880
587
393
360
427
645
528
309
374
581
487
451
245
458
759
449
288
437
653
448
575
422
457
668
400
278
523
708
528
278
535
685
495
474
313
677
547
528
395
497
717
334
468
509
679
519
397
378
522
687
306
565
527
625
495
275
556
635
585
329
510
630
610
399
372
531
708
390
348
486
825
480
549
398
551
687
262
365
575
690
256
282
608
601
622
349
451
540
647
309
453
590
693
429
249
545
670
620
332
458
746
672
426
396
566
720
234
438
567
579
490
530
436
482
774
286
384
543
694
492
171
620
665
563
345
366
728
643
348
341
526
899
224
257
466
832
471
548
560
569
692
438
300
529
528
491
359
469
626
572
534
397
577
583
481
408
387
798
320
489
621
679
559
0
1023
599
608
311
511
493
723
152
486
541
734
546
357
400
588
665
330
345
506
672
434
448
533
727
615
393
391
584
692
291
493
505
759
387
330
503
739
469
369
418
554
745
306
350
535
738
393
347
456
816
480
337
454
515
845
470
384
505
711
265
487
473
703
611
330
407
568
636
326
390
514
838
365
272
599
730
431
312
673
673
586
476
351
512
612
451
303
655
717
466
104
556
685
707
354
428
457
705
357
226
563
712
593
230
666
739
470
525
428
465
590
550
309
427
764
484
320
521
645
630
338
342
530
558
512
411
595
644
461
292
513
422
754
259
479
524
732
474
230
529
689
377
466
469
687
628
174
630
629
439
665
650
510
687
213
658
381
598
769
384
312
644
575
328
360
344
753
468
361
481
679
678
102
582
547
573
484
295
794
665
511
372
468
614
555
322
576
560
534
511
557
434
890
419
337
424
791
222
551
475
584
672
309
304
533
635
505
376
439
684
605
184
717
554
676
346
438
555
729
356
349
500
666
588
345
425
528
741
378
594
523
765
422
323
495
612
541
445
389
593
722
408
407
547
663
471
285
386
799
557
342
475
586
684
414
349
560
770
448
305
461
591
779
267
393
616
757
393
400
529
685
471
265
474
800
503
419
448
463
817
328
390
554
706
334
468
467
651
646
350
332
559
681
260
488
523
737
428
342
478
652
609
440
371
703
712
281
369
535
736
361
369
553
690
579
315
450
579
818
287
383
600
603
530
233
453
775
656
386
337
689
834
202
544
479
749
372
301
517
619
576
421
420
691
668
300
388
588
628
370
346
452
841
548
337
388
716
581
489
231
475
978
240
367
411
818
415
462
452
831
615
540
364
475
723
439
305
559
640
515
375
545
615
683
302
423
706
561
446
287
530
918
489
323
374
897
615
300
332
651
742
398
284
595
741
428
413
469
688
598
257
333
629
623
390
370
560
656
559
241
520
722
580
382
420
575
660
391
360
474
686
437
390
491
645
636
322
397
559
643
410
345
475
833
385
454
583
710
562
264
405
493
673
362
370
555
723
451
279
472
711
561
246
756
532
628
503
331
521
666
419
385
457
689
578
359
392
366
903
283
421
530
718
430
294
303
760
549
390
441
564
675
294
448
516
723
540
243
413
747
488
472
445
553
526
492
339
580
759
409
216
454
876
409
574
445
550
655
333
447
657
685
384
363
565
601
594
518
369
580
810
253
178
727
739
42
622
414
750
496
348
482
502
686
360
369
575
670
482
326
509
728
505
319
406
687
725
334
398
517
690
291
724
328
657
454
391
351
489
757
303
362
687
647
430
560
478
666
504
329
468
578
629
128
560
479
820
374
385
472
674
656
291
355
625
666
219
405
531
571
460
303
555
732
463
332
507
557
854
300
437
570
600
511
360
562
593
660
234
521
636
580
491
373
679
780
381
382
575
660
555
264
511
602
685
376
373
557
697
381
307
429
745
549
273
549
554
668
433
228
741
707
432
316
557
671
524
339
307
804
652
244
460
534
665
450
379
568
652
493
348
338
503
742
295
203
648
660
338
258
600
774
496
411
439
728
533
256
622
459
685
315
507
538
410
649
274
440
852
534
219
440
752
663
453
370
579
714
411
668
410
559
750
401
211
541
646
360
378
346
807
302
417
431
656
719
221
212
998
634
398
418
569
682
410
271
515
726
506
377
279
959
674
238
361
547
695
406
248
575
653
606
323
418
480
683
270
359
561
780
419
263
556
617
686
277
577
555
605
342
371
552
738
263
385
562
603
619
251
476
551
681
331
389
473
793
390
259
535
681
588
333
559
573
684
309
437
484
580
624
354
435
731
503
514
350
470
894
360
269
621
648
435
391
488
685
583
313
516
643
535
497
331
654
722
466
348
475
723
524
311
454
533
802
324
329
566
786
308
225
659
675
654
307
391
646
670
180
552
566
649
620
318
500
720
514
258
467
560
650
323
414
521
480
786
270
537
770
545
194
603
386
764
300
396
587
669
380
338
496
769
568
320
451
654
660
327
425
537
687
362
336
518
663
584
373
541
627
660
312
404
393
765
506
339
518
761
447
307
483
637
639
332
412
392
791
464
362
475
792
492
320
349
494
759
400
400
570
631
406
299
682
593
799
323
421
718
617
167
207
701
578
314
516
485
926
462
325
324
714
492
289
427
817
776
255
606
507
673
347
390
469
737
484
474
428
504
558
515
361
524
767
578
185
336
627
656
281
460
513
773
405
407
602
697
462
313
452
683
590
340
254
659
513
340
404
549
717
401
289
469
658
681
302
477
414
887
311
422
589
756
335
227
499
778
604
217
575
500
763
255
450
565
688
387
289
510
754
642
261
505
616
654
308
438
489
719
421
275
355
787
608
355
480
578
736
323
423
518
644
465
137
683
608
611
331
488
536
684
295
475
304
1023
355
323
562
714
561
330
391
553
754
345
392
629
555
363
416
499
645
345
581
506
498
705
367
387
408
895
205
271
599
795
487
282
440
625
554
406
339
808
656
352
289
540
599
545
293
470
583
753
241
326
801
678
390
369
516
706
492
341
461
571
675
291
350
527
717
414
229
576
664
624
314
456
603
491
494
201
406
796
407
327
525
642
485
270
437
770
641
336
377
551
669
448
488
503
637
502
360
406
663
517
457
385
523
616
328
468
510
719
431
359
573
542
692
349
394
543
656
404
338
505
770
443
436
449
775
588
319
383
526
648
456
276
606
611
528
328
490
617
651
326
371
533
733
399
307
451
878
406
316
602
678
623
299
408
577
677
311
225
738
732
473
358
364
779
492
184
635
579
674
354
354
521
693
430
305
433
804
626
336
430
606
678
327
356
544
729
472
303
489
606
631
390
379
712
692
267
365
495
737
390
351
502
684
493
340
425
569
726
340
396
575
713
418
342
498
686
557
307
522
549
737
256
368
590
685
373
373
508
666
604
335
464
490
784
320
374
604
706
438
315
497
687
571
346
427
638
552
432
407
557
685
412
322
481
718
545
351
487
591
635
331
478
579
680
437
387
571
684
537
372
435
600
618
392
406
568
686
427
308
566
664
619
277
486
575
636
303
440
502
723
489
280
524
689
530
438
