628
192
618
575
426
558
421
534
491
575
170
1023
328
639
630
207
671
437
502
83
708
599
490
478
393
729
510
455
684
496
758
486
430
435
731
200
459
439
520
520
426
352
908
675
140
386
756
564
445
343
477
558
448
594
458
661
511
436
344
627
682
429
535
483
644
469
561
256
732
463
664
324
632
550
479
48
825
593
472
464
367
696
375
542
404
515
631
646
414
467
604
697
482
464
620
544
406
478
485
550
402
381
1023
573
526
508
634
432
375
573
375
562
559
667
462
462
735
440
577
426
643
547
474
301
615
590
483
347
554
831
452
441
385
698
581
553
481
571
549
439
399
408
509
669
522
355
755
509
404
403
477
581
396
517
675
513
710
357
476
681
386
467
380
594
714
433
484
567
629
508
532
449
553
462
475
523
560
640
466
342
454
662
455
367
615
526
575
592
375
687
494
466
331
619
700
504
467
500
703
656
332
374
618
545
438
492
446
596
504
473
519
635
501
505
436
608
512
467
438
531
630
336
780
324
564
501
511
391
649
667
477
393
524
560
627
479
438
663
501
456
462
669
536
524
369
462
613
511
332
624
683
518
463
409
507
617
466
427
524
680
624
486
412
745
533
462
343
466
645
502
512
493
694
480
499
443
699
437
579
341
611
545
499
208
584
567
830
281
487
640
522
453
468
532
721
464
398
635
492
491
513
399
683
607
515
442
524
572
447
372
572
697
617
396
521
697
445
410
471
586
535
490
432
572
509
692
654
422
506
643
482
340
731
530
550
237
483
682
430
496
531
698
496
523
443
521
523
612
451
463
688
440
423
461
643
592
483
312
714
563
539
324
789
180
694
453
493
693
501
540
495
358
697
437
485
457
681
482
324
595
576
463
312
852
536
588
540
419
409
546
450
473
583
645
477
564
177
807
502
537
488
480
597
538
158
815
616
496
455
448
412
660
466
429
627
634
493
487
472
590
608
454
461
655
472
525
656
516
924
448
454
414
684
450
462
432
640
503
558
305
468
683
701
396
729
511
501
531
389
629
440
487
371
587
536
676
563
280
685
529
459
473
661
425
446
303
699
475
610
395
496
601
569
419
324
637
426
596
355
673
474
673
365
469
659
476
467
462
686
467
458
652
480
771
495
480
569
963
446
384
531
632
505
512
399
739
469
522
481
525
691
538
462
448
603
465
496
372
642
504
509
435
441
697
426
578
439
472
545
488
150
581
835
496
529
446
673
516
494
413
710
452
677
286
680
698
482
475
473
641
539
433
606
587
526
507
390
647
643
503
498
500
654
467
407
572
536
566
506
417
537
678
499
404
665
759
419
594
491
546
476
494
453
573
547
432
459
459
526
498
572
430
546
561
479
419
546
507
630
382
453
624
457
486
485
600
573
551
465
502
605
499
451
530
758
597
428
504
538
702
660
274
605
602
573
390
426
602
557
411
432
577
551
426
481
497
696
465
336
471
696
521
416
248
836
418
484
396
751
459
481
433
491
723
570
401
517
690
632
395
421
521
641
493
404
543
720
514
431
546
554
570
450
535
500
732
543
288
505
608
563
460
500
732
470
554
538
372
770
428
433
544
644
551
410
383
473
511
468
204
683
601
552
366
476
701
506
419
481
460
515
465
372
652
628
510
479
446
547
464
524
429
670
410
508
476
622
633
431
452
592
455
578
670
462
547
662
475
267
504
647
494
393
520
523
578
442
401
597
573
392
251
633
704
428
329
700
604
594
475
343
540
453
442
364
613
577
529
379
611
674
541
236
464
750
307
657
379
535
482
632
384
441
631
503
452
503
606
436
533
285
764
501
468
359
601
679
525
528
335
582
504
361
470
487
744
671
409
697
484
533
465
456
520
559
543
363
562
439
429
594
512
697
532
114
567
632
453
591
455
864
480
568
385
502
699
441
475
524
491
667
511
496
653
606
424
433
461
741
546
749
251
656
484
567
276
689
672
495
649
405
749
250
624
66
667
592
687
334
730
524
643
465
280
750
548
424
537
448
516
645
458
431
640
453
490
484
720
565
349
642
365
677
494
349
661
481
416
316
512
701
476
408
475
519
517
470
294
775
467
510
431
526
691
517
273
610
603
565
482
483
630
569
415
328
527
533
578
469
542
539
497
414
532
600
507
495
452
561
526
577
492
494
662
516
413
421
542
415
875
267
571
592
666
457
636
678
536
517
404
590
652
447
265
893
504
596
442
446
662
430
476
388
627
439
698
282
459
651
629
385
560
657
403
680
274
778
527
497
443
475
567
567
699
588
811
348
367
442
425
620
507
660
633
539
555
375
582
439
696
457
472
482
714
509
84
742
559
485
489
446
388
1018
360
407
601
747
420
296
514
621
541
457
443
558
532
445
347
505
715
302
457
635
581
613
515
472
569
610
353
502
779
484
475
299
625
508
578
503
143
1023
325
510
433
621
448
567
452
449
835
410
571
294
845
267
746
241
594
682
400
415
531
595
456
441
467
535
527
328
396
639
503
513
625
413
586
742
258
479
164
511
876
254
650
676
500
289
677
554
581
434
407
574
372
683
313
677
608
452
617
835
556
537
533
418
376
715
329
517
610
621
498
303
560
480
568
391
492
697
489
478
524
531
486
491
386
434
586
336
576
458
480
651
478
342
661
458
513
339
952
505
492
541
541
694
538
359
555
435
610
486
441
635
537
531
389
528
610
434
593
511
588
591
560
353
602
597
491
304
625
698
478
533
431
457
699
443
286
643
596
459
542
430
634
444
447
311
723
603
592
403
527
589
401
531
240
1023
538
499
433
623
522
398
353
614
436
561
321
544
673
540
532
429
699
505
390
475
531
497
752
410
441
651
417
596
301
853
475
581
93
441
1023
339
577
454
520
517
511
347
713
512
458
428
478
890
359
523
505
476
915
437
447
632
613
427
443
623
682
496
468
472
618
458
475
436
814
338
528
500
509
616
474
493
417
656
599
476
446
551
644
482
478
534
593
504
426
381
690
467
495
464
646
490
531
355
508
671
483
550
436
612
497
456
427
576
562
591
308
761
679
580
433
469
742
478
445
386
698
517
436
133
764
611
477
471
523
516
470
516
439
598
555
480
399
683
820
505
387
531
612
533
462
476
606
460
504
306
686
476
491
490
459
527
729
427
351
736
593
423
489
440
890
438
465
537
548
525
418
317
789
509
491
366
546
616
493
533
509
609
637
462
309
745
542
610
354
589
603
673
406
521
684
505
423
437
619
459
643
316
530
617
447
481
442
655
562
468
413
602
558
481
461
631
571
498
547
443
673
532
477
448
565
679
407
371
587
601
598
456
466
498
597
658
391
669
580
438
568
480
635
600
458
514
644
487
458
417
744
583
438
425
651
493
521
476
434
603
519
664
496
601
522
515
376
608
555
448
398
473
651
455
311
650
531
532
493
464
523
566
446
433
477
560
470
508
491
616
446
650
415
518
639
423
525
466
590
521
501
618
667
527
502
215
763
597
471
499
532
634
531
468
407
682
504
402
374
649
630
412
669
575
533
497
301
599
591
557
451
486
638
573
493
455
399
622
509
361
449
642
552
600
509
555
609
491
351
495
600
625
600
526
653
516
502
398
513
591
384
463
500
638
598
544
322
621
588
419
407
530
696
524
484
588
597
489
549
400
605
486
510
462
570
650
481
466
399
604
456
538
380
699
535
530
350
642
574
398
416
588
584
535
554
454
600
649
460
523
740
533
583
395
551
605
564
451
476
640
580
473
412
548
670
270
483
556
645
345
509
332
634
485
448
454
524
696
480
252
511
622
508
327
573
607
596
594
354
564
797
441
379
504
662
476
477
540
648
539
527
364
579
560
453
461
476
730
539
451
321
692
534
471
385
611
597
485
449
515
603
420
457
406
595
604
496
346
570
575
475
277
502
504
642
364
434
731
569
611
300
568
621
402
602
520
416
829
566
406
595
473
585
91
731
763
453
221
488
790
466
449
360
740
587
381
498
535
666
367
494
484
665
335
632
394
708
450
531
414
553
560
489
358
603
650
456
474
476
700
544
476
477
676
401
675
134
875
565
467
549
399
777
469
435
343
620
377
618
402
614
770
423
468
348
549
524
554
531
534
628
671
280
610
595
413
355
435
546
680
380
641
662
535
603
263
438
673
518
392
563
464
864
300
387
559
565
506
228
482
683
727
433
615
753
485
325
561
555
564
551
376
520
645
498
475
408
637
399
582
323
1023
583
566
477
444
641
456
445
354
667
533
368
485
501
757
496
96
729
576
544
446
269
745
673
461
491
685
395
675
125
660
597
586
441
420
966
339
441
365
717
528
237
651
412
557
488
494
422
443
998
461
285
814
741
442
523
428
681
521
456
462
712
489
543
492
571
585
493
187
601
687
481
547
434
684
717
479
468
556
615
409
608
422
691
377
652
488
617
507
442
427
507
785
440
373
541
586
583
380
462
774
399
476
439
481
694
484
349
478
657
535
496
764
473
401
453
580
615
516
490
333
508
505
539
412
505
602
548
454
383
644
539
353
555
346
730
447
576
461
674
493
490
265
514
795
439
301
515
651
445
633
408
701
541
420
346
605
561
494
343
487
632
510
497
473
663
534
480
325
517
548
457
470
547
597
546
454
453
582
590
340
483
597
560
405
472
432
695
484
541
419
557
503
502
459
579
645
448
435
541
481
756
352
485
694
519
498
443
516
732
501
294
649
562
515
456
419
636
630
541
329
685
604
496
360
507
583
468
530
491
743
464
525
505
635
599
503
37
844
459
659
362
686
630
491
527
269
671
532
522
361
499
602
573
344
436
580
494
409
456
640
543
642
433
516
534
505
337
496
504
700
504
369
579
543
484
367
553
669
490
520
457
570
582
493
415
611
517
545
409
502
698
464
498
467
644
471
539
490
531
520
434
397
452
692
582
466
486
613
557
471
412
608
562
486
406
493
726
495
455
498
591
550
608
366
622
583
507
390
482
700
420
449
449
660
571
410
451
535
609
653
323
539
699
557
497
493
739
517
435
395
464
624
444
481
536
590
487
493
360
582
698
269
585
573
614
458
372
534
616
510
508
443
677
562
469
401
697
609
464
393
522
628
373
535
455
623
586
469
507
675
521
550
312
581
684
427
492
375
643
532
555
291
729
576
525
407
379
753
462
488
509
561
531
483
436
598
550
455
411
512
639
354
536
445
769
429
499
397
586
636
465
405
514
532
638
436
483
612
743
290
414
529
692
432
307
522
629
490
540
479
565
724
466
92
513
627
503
425
524
618
561
423
528
603
590
425
427
552
679
467
492
487
627
497
582
346
712
492
443
504
626
623
372
388
544
629
512
525
458
644
572
526
361
602
544
410
591
430
746
733
463
362
703
478
542
472
581
424
773
309
484
622
518
596
479
737
623
391
413
505
552
383
436
690
741
428
433
413
773
472
553
316
630
525
474
286
573
697
538
439
448
614
418
768
271
670
632
592
330
613
617
281
582
454
594
700
249
262
416
616
567
394
524
766
446
338
482
491
712
516
368
729
697
458
296
481
690
469
506
507
520
494
470
432
505
757
402
444
490
730
469
472
456
614
513
403
489
515
576
550
400
467
673
453
442
477
625
512
508
330
733
512
446
565
404
744
485
472
458
822
468
432
478
562
534
466
404
408
612
464
480
426
706
530
349
515
445
625
302
592
440
838
451
427
427
700
466
500
278
265
1023
354
321
545
580
467
320
395
516
533
424
532
504
526
623
310
583
606
486
444
393
879
399
559
433
436
529
460
295
554
572
546
574
387
565
657
483
280
697
575
467
390
497
581
513
418
411
686
467
528
454
535
619
471
335
525
639
495
452
486
615
554
496
366
560
510
591
388
595
665
492
458
544
732
391
497
395
524
520
546
283
524
698
454
476
440
617
509
514
376
572
545
504
422
458
594
606
430
518
638
511
512
335
610
557
477
460
418
806
483
370
644
617
465
438
464
419
831
413
485
524
576
480
414
479
567
650
531
306
597
586
500
431
485
640
575
487
480
749
510
574
478
478
614
574
387
514
655
464
481
416
668
499
704
282
668
585
454
411
400
648
420
690
370
672
541
496
337
645
547
607
423
407
713
482
426
544
594
721
642
277
614
590
470
388
453
784
394
509
468
499
755
334
472
563
694
501
420
514
528
541
429
448
616
563
545
447
543
547
535
411
364
731
490
500
520
657
469
475
323
587
500
490
464
471
657
487
536
459
525
522
593
256
578
632
496
420
705
575
492
483
440
540
420
575
445
514
682
513
387
532
523
498
645
424
718
568
471
307
564
680
690
435
524
699
320
697
392
570
697
550
347
698
497
447
389
496
688
497
473
174
841
696
458
458
542
627
359
720
300
675
595
542
288
889
393
449
414
616
589
495
394
677
360
932
360
415
630
520
428
365
689
607
460
547
508
553
474
428
593
623
504
542
355
605
494
529
403
523
554
479
470
497
686
492
515
347
688
569
464
477
530
539
491
511
393
646
599
381
451
548
507
545
427
432
484
767
271
576
608
611
507
222
696
795
436
452
500
598
442
359
409
720
462
453
500
651
548
506
458
492
610
563
316
552
750
513
554
406
534
635
516
432
529
698
603
489
437
616
484
477
419
635
542
486
463
479
664
575
495
426
664
512
559
225
585
518
659
420
446
598
492
512
280
673
558
493
206
567
618
444
392
503
542
585
448
434
579
577
456
472
588
570
530
441
460
676
433
638
411
628
499
411
363
603
562
481
474
495
578
401
611
318
671
575
543
350
559
505
534
399
633
600
561
516
308
638
500
526
359
520
599
470
468
444
643
491
513
417
568
627
511
343
664
570
475
473
450
600
498
458
458
620
562
474
431
517
699
563
313
578
602
452
457
412
540
579
429
422
565
617
591
321
635
555
618
470
324
618
549
531
246
464
744
396
599
420
640
479
388
476
440
679
550
407
580
583
475
533
384
697
497
551
405
536
603
477
397
543
534
537
404
469
571
511
532
381
607
525
580
359
586
601
462
527
422
659
440
464
310
622
465
647
489
385
664
513
645
409
611
566
429
460
477
674
490
428
473
703
470
475
542
733
671
467
372
520
793
425
381
619
697
484
277
748
484
483
468
507
612
780
238
507
382
678
355
519
531
697
389
501
357
699
468
346
299
424
803
276
682
508
503
698
464
339
652
507
471
282
575
612
484
560
513
679
492
482
605
498
663
340
419
530
634
547
460
483
647
393
476
303
732
486
597
339
510
614
485
410
489
630
473
445
429
548
516
625
392
481
633
450
691
412
626
681
434
299
562
557
485
481
484
496
533
453
450
651
482
380
526
367
758
575
455
541
549
437
539
390
856
408
599
266
653
530
579
331
480
684
388
605
372
630
463
677
225
534
576
552
195
475
569
630
495
365
698
496
526
472
487
754
432
451
464
674
447
480
347
749
572
280
518
599
682
509
486
503
607
372
587
368
647
576
537
300
513
587
452
513
339
678
541
458
453
627
477
459
290
489
908
482
418
498
647
409
574
291
690
652
490
439
461
667
494
472
498
613
517
591
169
1023
506
480
441
709
500
417
507
360
612
597
542
359
567
447
504
367
464
484
506
758
322
645
487
866
212
590
434
597
474
556
661
558
308
500
529
109
493
504
829
450
609
243
525
505
500
490
495
624
482
615
241
550
701
524
368
548
687
431
454
527
438
645
389
437
583
489
620
315
573
675
527
457
493
681
469
343
586
806
533
663
393
524
595
528
292
662
504
502
420
470
581
561
444
339
670
511
584
286
697
502
523
479
337
570
721
573
412
649
600
460
372
476
587
549
253
637
527
491
478
275
856
373
1023
387
355
989
262
410
132
789
386
166
848
438
736
408
426
390
493
366
903
473
583
574
490
331
486
615
377
492
228
986
620
614
265
614
400
760
236
441
1017
350
625
457
553
634
317
201
820
610
401
488
586
658
467
463
416
553
518
406
322
503
670
544
273
557
422
695
66
785
619
483
602
639
507
408
500
561
460
678
525
392
412
599
713
544
535
529
400
872
293
567
830
515
374
407
691
439
343
432
1023
462
391
472
471
678
520
451
519
419
611
192
553
543
560
410
461
511
524
620
218
495
539
502
522
351
585
736
467
309
509
598
444
698
316
865
477
544
438
538
452
470
440
582
499
666
492
372
648
537
273
560
305
647
472
407
490
479
381
654
548
681
553
491
342
558
524
477
418
437
581
474
524
648
597
510
479
324
666
485
579
417
452
699
709
443
429
743
698
310
601
540
658
504
477
692
553
607
402
481
628
439
510
367
665
547
415
420
511
636
510
540
521
530
645
516
420
598
618
462
329
598
612
785
386
448
624
511
438
354
541
601
474
493
645
566
507
431
474
689
484
468
439
534
633
284
445
467
728
372
573
363
732
496
417
409
577
540
451
415
479
662
483
461
460
711
550
405
542
446
512
542
401
506
484
524
499
460
558
541
494
360
621
568
370
531
462
605
528
493
310
735
482
560
284
556
533
527
452
615
538
540
482
366
813
489
326
497
475
590
515
454
470
550
474
519
429
647
550
464
419
551
577
491
507
491
638
453
180
511
571
448
798
222
708
630
477
514
434
600
461
475
484
559
536
430
460
607
564
439
429
456
505
549
504
520
683
380
400
407
355
536
472
472
490
624
468
475
491
649
569
302
649
432
670
509
463
457
637
463
497
508
800
499
414
633
477
771
426
470
477
611
490
374
672
561
555
454
312
538
519
509
431
459
683
466
500
354
656
695
512
379
554
591
572
490
406
653
546
453
336
660
685
450
348
480
700
402
416
465
592
346
538
363
588
578
237
700
561
605
512
539
451
611
545
434
433
613
517
580
310
539
641
497
510
416
633
517
478
426
614
662
479
346
579
592
492
499
461
603
567
483
476
638
721
323
378
355
626
474
506
457
559
583
464
355
667
461
476
466
558
584
686
520
474
674
505
473
331
657
589
478
443
608
627
533
538
397
790
487
504
438
569
576
391
476
536
590
553
370
384
647
490
444
453
574
447
678
469
434
798
471
424
437
543
648
552
377
598
498
479
338
505
702
460
381
490
511
542
497
359
566
630
458
426
481
787
505
419
435
664
545
459
421
568
542
558
271
562
661
487
539
447
622
440
491
429
506
712
357
399
699
537
500
497
364
636
490
455
481
700
679
440
417
528
600
573
415
491
651
566
497
442
573
520
507
398
485
602
474
571
439
619
481
484
432
511
653
512
379
471
653
458
368
614
638
515
532
497
563
529
449
506
335
606
625
456
503
555
554
550
365
609
638
468
408
493
569
378
570
380
574
666
544
327
652
550
481
370
550
668
514
425
523
626
450
672
243
595
478
470
489
553
563
686
503
424
661
529
485
382
497
633
463
390
396
774
430
568
395
688
483
578
292
578
588
525
419
465
606
545
402
498
653
488
526
407
634
725
464
392
477
577
506
456
480
664
450
821
339
562
538
476
350
585
587
661
596
441
619
542
446
290
599
600
505
440
480
562
502
383
550
680
665
352
458
500
607
505
474
524
657
518
446
487
555
580
480
429
508
598
497
505
333
626
458
688
381
682
451
689
223
494
635
447
482
498
692
507
370
484
531
743
351
526
669
467
532
442
494
644
527
358
572
531
483
567
379
490
587
391
534
449
590
568
453
459
613
658
432
327
498
639
441
446
332
830
479
318
714
771
458
470
386
771
454
513
503
463
652
628
364
420
624
460
561
436
442
524
422
603
377
690
503
507
326
634
509
403
480
540
547
699
501
382
558
480
614
453
517
560
463
329
546
612
536
463
472
699
524
229
540
583
510
484
271
531
719
510
503
354
741
435
417
518
555
743
511
346
544
532
438
454
388
619
624
341
461
659
504
364
347
529
579
555
471
379
595
460
511
448
638
645
447
357
563
649
496
485
500
536
500
485
387
612
510
565
495
398
851
272
376
405
681
454
434
489
559
529
690
267
544
582
614
471
515
621
541
472
439
603
501
480
323
567
685
558
414
518
701
522
389
317
644
595
557
371
661
591
499
455
335
582
631
457
413
556
506
488
434
514
776
442
395
442
644
502
308
483
549
493
614
295
793
555
477
319
720
620
591
596
572
647
513
359
320
439
699
346
454
517
635
469
470
277
595
453
583
360
487
548
493
382
496
570
481
297
545
597
357
855
326
351
824
329
535
315
559
454
429
414
639
466
491
625
472
551
424
490
424
698
469
723
240
742
543
293
330
552
725
466
427
483
660
509
628
356
654
640
442
373
554
689
452
508
422
368
993
450
379
730
501
424
401
392
548
503
455
445
446
812
288
662
637
627
473
393
501
640
494
482
428
596
597
507
468
488
680
434
522
477
617
472
540
432
675
497
519
481
696
610
470
407
620
564
503
519
399
768
501
396
404
549
509
596
510
529
612
469
478
492
543
492
732
337
574
574
487
507
435
694
544
432
428
606
599
466
217
748
515
438
461
461
565
479
581
477
566
520
418
469
500
653
467
345
623
548
518
600
388
699
472
496
409
531
647
502
431
433
688
440
560
231
738
667
455
285
527
470
670
360
682
518
373
812
320
463
1023
311
361
614
562
419
382
528
775
489
242
766
567
675
537
295
547
795
425
302
718
604
534
427
487
765
517
432
272
613
627
497
472
447
673
498
335
508
620
498
607
371
525
547
593
398
511
623
494
470
478
657
510
438
406
519
587
406
504
532
672
578
374
613
698
502
505
286
745
460
455
348
888
487
494
499
395
593
495
530
347
494
729
458
370
699
506
559
485
567
595
638
437
393
661
525
452
422
521
497
556
559
415
746
483
461
551
475
585
427
525
437
530
592
479
496
698
532
479
446
574
552
452
555
434
733
532
513
447
612
580
464
402
540
607
485
611
415
545
529
544
400
651
485
488
404
562
699
481
451
458
736
459
446
425
599
641
419
384
689
630
445
455
664
518
526
447
491
641
558
529
316
558
559
442
645
551
618
532
479
285
789
415
432
424
569
513
573
403
470
609
511
446
428
506
752
296
456
530
593
500
459
493
641
480
663
236
652
507
550
414
520
659
432
481
430
612
620
259
486
641
497
478
248
634
528
461
460
458
587
520
467
480
533
522
603
368
601
490
576
413
426
700
392
687
410
568
595
498
341
490
634
583
467
492
617
412
631
270
856
560
491
303
609
588
449
470
483
621
492
379
499
654
510
475
261
640
494
537
491
464
592
447
513
468
570
479
812
319
507
613
562
427
437
530
661
488
416
636
538
714
149
585
657
500
476
506
624
533
567
474
571
617
470
337
644
513
501
451
468
709
565
451
321
783
490
578
393
519
664
480
519
389
669
606
476
362
574
613
379
361
599
570
469
513
309
642
629
424
489
588
509
429
422
508
641
457
452
424
616
505
467
409
659
496
505
289
824
520
453
500
277
642
473
481
451
560
550
477
283
697
640
478
494
530
444
680
341
541
702
545
417
365
528
569
671
340
618
801
467
523
512
560
499
446
514
508
776
443
368
664
505
494
438
710
579
654
462
451
546
669
486
462
483
620
511
454
433
697
557
538
429
593
569
502
395
456
622
486
474
214
505
528
585
386
453
696
428
520
442
735
500
556
372
697
586
591
356
493
668
440
666
400
733
462
555
552
529
585
517
416
469
608
472
392
478
642
510
486
405
542
658
390
353
698
699
473
406
345
723
464
450
342
636
638
396
392
450
653
492
472
477
605
506
507
501
596
659
496
340
451
677
512
350
728
414
649
546
435
654
518
477
312
601
807
457
444
443
634
496
417
465
562
527
497
305
595
559
585
463
370
672
464
440
408
538
624
402
449
480
584
534
401
414
700
480
440
493
575
532
505
369
499
617
490
547
500
555
544
423
523
687
573
466
469
469
613
497
500
391
687
496
569
459
564
619
401
465
482
540
559
476
488
477
470
452
431
540
669
456
475
472
628
592
403
556
605
480
505
456
534
507
659
309
533
548
686
367
374
786
488
561
432
501
639
455
525
596
573
653
529
475
673
517
504
404
535
590
537
351
444
697
515
434
521
591
537
454
428
558
572
518
439
497
662
519
458
405
684
474
514
367
595
539
497
460
346
648
489
366
698
503
571
455
488
508
650
468
369
607
497
690
569
458
590
781
446
366
647
649
482
371
525
587
536
434
387
837
359
744
245
648
438
414
511
472
657
488
434
540
656
510
484
573
596
626
529
535
480
629
435
404
597
543
598
703
362
636
531
504
431
402
659
679
507
474
737
612
466
259
521
749
486
515
500
581
699
413
412
634
566
541
295
465
994
252
613
464
578
479
413
503
672
483
525
443
487
478
629
323
652
533
582
453
454
573
498
577
346
567
585
534
339
439
655
457
464
419
773
415
571
254
740
656
438
423
541
584
625
456
377
647
438
447
443
686
514
432
385
466
651
513
435
566
551
628
489
353
786
498
674
497
553
650
558
437
268
786
357
691
426
614
579
478
457
407
810
511
455
395
1023
474
452
417
598
537
542
459
396
681
658
282
697
611
480
624
189
537
645
373
569
504
582
453
456
387
745
513
432
516
519
564
569
464
487
691
534
450
494
839
436
449
461
480
617
645
465
458
626
533
456
808
520
627
478
487
454
602
449
443
480
582
496
453
409
688
521
505
404
529
530
697
395
394
817
477
474
391
582
473
454
357
650
572
428
569
517
582
520
543
391
728
451
569
373
558
639
491
481
492
659
487
517
453
515
547
450
483
643
762
391
534
520
637
499
494
370
715
474
450
242
768
620
528
373
446
621
609
459
538
512
573
696
322
255
721
450
532
361
697
601
420
457
451
708
461
395
647
644
475
375
471
616
473
576
433
635
757
535
298
479
504
538
440
478
592
519
532
546
549
569
508
422
474
696
411
498
533
605
510
492
419
585
641
371
422
532
667
420
536
425
531
629
459
571
649
581
500
378
549
686
619
456
620
443
489
489
332
669
564
523
450
513
495
427
730
479
655
533
462
422
669
539
437
506
476
733
422
749
493
554
618
331
418
670
414
538
466
447
673
473
651
427
463
620
477
431
634
561
610
357
556
506
731
585
358
690
392
634
314
699
497
433
426
602
687
608
381
563
722
479
440
402
534
557
483
391
579
579
527
403
504
624
486
582
463
618
599
499
346
536
783
483
505
464
549
552
488
395
653
550
454
414
574
612
598
390
515
483
662
405
543
553
506
477
536
479
547
567
409
465
510
629
347
456
744
507
491
411
478
757
469
536
461
631
445
407
417
592
678
526
482
434
630
425
429
558
620
493
441
480
564
544
559
299
699
526
591
426
480
881
383
293
573
489
682
453
416
507
665
526
471
452
605
553
537
507
587
509
560
404
545
504
479
548
446
720
550
534
401
632
571
412
499
520
617
545
455
547
619
492
533
411
779
506
361
497
508
616
529
410
440
609
724
432
509
663
493
756
360
600
625
444
395
453
621
430
384
545
480
489
386
456
515
747
441
536
455
691
482
499
348
585
504
506
420
458
632
506
484
482
589
603
438
347
596
639
462
496
576
568
533
435
552
556
420
732
291
732
520
522
408
471
853
425
507
437
610
537
537
325
566
689
415
363
631
544
458
656
415
658
445
608
203
696
461
508
360
653
630
565
431
477
696
414
767
331
652
472
506
355
514
503
699
407
466
731
468
540
392
552
662
463
408
574
585
567
415
459
753
510
511
407
756
521
477
396
733
456
523
518
481
580
470
540
361
611
484
452
450
582
490
511
485
422
695
630
530
493
579
533
453
389
543
533
791
475
497
670
531
468
329
695
515
468
428
546
585
537
444
689
521
508
366
575
592
498
494
369
615
548
527
492
491
592
540
451
423
556
615
495
309
646
641
485
428
672
549
486
596
387
621
539
449
397
552
514
570
444
487
646
520
496
439
587
534
504
389
664
638
561
386
615
532
508
505
479
630
477
472
526
492
612
476
409
451
629
393
594
453
546
612
481
403
526
604
443
471
660
501
545
520
431
638
607
506
424
530
682
392
398
599
554
486
518
420
521
520
500
437
541
620
488
426
493
661
640
434
465
720
457
471
440
627
588
599
521
403
575
521
275
746
588
643
437
443
596
562
508
488
533
537
623
520
364
660
511
372
406
525
602
548
486
431
530
568
464
495
636
548
336
482
498
601
566
452
547
600
525
454
452
625
523
676
318
519
652
590
461
450
608
555
489
444
578
548
512
413
604
584
501
369
564
572
521
449
511
564
580
506
331
560
503
494
383
501
718
521
505
290
592
732
415
426
551
605
502
448
453
551
674
546
272
579
639
451
339
547
534
511
457
540
622
490
518
444
686
491
463
426
663
578
488
456
463
654
487
465
505
624
585
573
195
793
531
465
496
482
625
487
423
527
632
525
466
300
638
513
542
475
460
654
476
486
493
627
605
392
524
583
486
570
446
491
585
499
647
267
623
577
471
442
555
640
547
484
637
501
438
553
491
543
482
417
313
540
741
408
761
449
642
529
526
362
742
516
495
448
549
599
467
433
480
692
483
494
420
686
500
418
496
506
729
460
476
532
612
462
620
347
663
605
461
359
672
638
476
457
511
561
596
449
346
692
514
452
396
561
595
486
504
455
747
488
476
399
658
517
485
471
590
601
567
401
582
628
585
495
281
782
412
477
338
573
632
490
447
480
596
580
504
433
622
502
579
448
486
735
535
517
433
630
526
496
372
660
531
537
314
578
534
495
482
529
596
585
456
460
692
468
461
365
618
601
458
463
450
616
526
498
530
621
539
616
347
542
543
481
431
516
668
501
474
333
702
483
522
309
673
564
606
433
477
667
434
493
469
695
596
464
526
537
605
476
468
464
645
460
564
362
743
510
464
384
542
639
521
518
448
637
655
484
476
648
429
519
371
511
696
559
454
460
610
467
487
643
567
506
266
626
436
584
359
612
572
616
506
471
424
655
512
634
442
509
689
515
427
490
633
469
471
519
560
783
492
272
618
623
490
460
473
617
533
459
426
678
497
502
309
692
477
510
492
472
601
452
483
460
560
617
499
383
523
545
539
448
468
656
513
479
639
604
526
592
360
564
587
509
467
474
621
646
447
425
765
523
387
440
524
697
434
514
446
880
458
442
575
597
595
491
370
570
594
515
431
591
629
597
495
440
633
537
500
415
773
505
550
459
507
632
478
461
491
627
553
511
360
637
554
524
542
449
678
450
482
478
581
531
440
343
675
538
473
437
458
609
535
488
450
647
469
474
413
553
602
544
512
476
675
578
486
451
629
510
413
397
570
642
532
550
457
657
472
518
449
644
652
455
472
535
621
481
317
628
548
507
550
492
599
514
434
418
647
622
422
563
527
689
479
527
397
690
503
382
490
528
624
482
482
470
588
670
615
441
700
602
430
573
562
570
516
467
703
674
581
542
434
652
548
404
459
546
458
704
364
529
660
321
680
411
592
650
516
328
507
634
709
298
688
519
663
494
313
811
465
453
345
478
641
473
606
364
764
433
488
641
453
529
777
257
515
802
386
453
698
506
498
596
271
855
465
528
226
872
485
446
666
469
608
465
591
635
563
603
390
320
480
489
439
560
684
448
394
637
331
581
658
404
381
549
581
500
581
430
720
542
399
452
501
666
452
442
580
722
318
370
735
193
633
244
488
531
844
376
638
467
513
601
263
545
611
645
443
408
567
468
727
186
942
571
403
461
574
497
506
723
354
504
697
501
455
395
767
288
452
756
548
445
407
380
644
559
413
517
499
499
492
778
331
698
546
406
540
677
432
450
515
513
654
572
379
640
626
548
494
426
667
520
460
381
494
630
254
737
283
542
592
542
374
634
515
620
258
542
531
605
312
503
645
430
658
314
748
613
491
401
844
392
591
561
377
660
536
575
446
299
641
464
433
609
554
309
463
456
641
561
537
404
668
656
493
320
634
631
396
665
455
539
686
412
447
697
550
472
479
530
582
549
501
519
651
336
475
480
783
356
625
359
555
650
684
241
547
633
349
698
437
735
445
598
452
674
467
814
343
494
673
512
443
452
698
513
453
520
487
692
537
543
420
747
527
470
344
638
390
469
279
606
622
508
444
745
482
577
483
599
545
633
468
477
597
542
397
339
553
597
599
442
632
543
559
431
402
643
729
463
472
479
530
406
555
55
1023
457
481
523
499
564
490
470
362
785
775
272
399
859
420
236
641
475
699
351
676
353
687
345
977
317
534
326
595
375
519
600
567
350
698
578
524
491
389
646
450
575
516
542
539
550
259
517
547
604
557
642
563
546
460
420
456
1023
305
491
478
490
449
444
500
762
516
531
570
545
674
654
357
492
569
511
453
463
545
716
470
274
536
635
472
421
399
522
713
415
392
699
453
515
351
521
634
460
464
649
525
500
497
279
758
211
768
323
533
699
507
604
397
700
408
543
448
546
538
633
181
389
761
411
375
638
721
302
432
38
886
536
381
409
550
496
469
458
435
623
519
479
409
634
508
561
447
518
607
546
232
782
650
488
469
434
696
489
431
336
744
521
491
426
581
570
546
490
532
548
611
488
340
562
513
436
620
235
920
300
277
530
484
499
509
277
542
623
623
474
530
634
533
474
288
888
497
449
551
825
485
443
784
515
494
543
616
547
831
521
487
460
528
530
498
384
479
780
493
585
698
607
709
498
425
463
568
516
441
511
643
441
479
464
505
766
505
551
580
487
681
348
541
501
567
552
502
452
741
452
392
556
572
452
515
691
555
635
481
372
494
526
421
404
601
635
459
485
445
795
473
503
486
613
522
522
347
629
564
655
420
615
509
480
568
396
643
565
552
372
485
512
498
479
431
732
424
490
442
680
539
496
274
548
474
749
469
581
604
621
463
316
611
737
438
465
548
588
533
410
495
637
531
446
487
674
517
499
438
641
526
538
435
416
557
541
497
313
832
345
478
277
724
652
539
327
472
618
495
448
387
669
560
484
404
533
744
406
418
527
548
554
572
449
751
486
462
327
669
697
454
562
461
696
339
732
430
696
583
540
436
511
713
481
367
582
545
430
421
418
757
487
566
309
602
628
420
485
411
496
685
501
620
632
628
471
382
590
547
737
388
540
857
421
508
471
572
589
664
207
780
644
468
545
530
919
486
459
446
643
676
341
419
513
487
593
369
617
558
488
594
282
736
448
429
488
691
546
613
533
509
627
465
585
362
511
693
452
514
573
561
409
657
445
498
772
418
540
538
586
391
410
498
520
468
512
360
744
510
477
421
605
474
498
379
588
591
487
467
459
691
402
478
427
668
567
562
301
518
690
489
381
532
643
453
449
278
736
467
665
388
529
627
605
440
439
697
492
446
362
859
538
529
432
564
625
526
448
570
549
814
455
384
687
509
487
434
525
542
503
464
457
556
485
664
455
691
554
541
126
716
559
467
518
669
593
404
504
332
649
466
508
308
646
529
508
541
434
738
484
563
569
494
530
449
351
634
539
587
358
756
484
425
587
435
556
657
531
325
493
632
520
450
408
666
453
505
488
566
567
463
313
518
500
509
437
432
611
569
499
440
638
411
569
433
507
775
249
591
647
577
478
516
435
592
517
481
400
584
634
497
466
492
689
558
458
465
644
541
462
428
546
542
443
386
638
629
754
515
488
646
556
474
361
476
558
512
427
498
554
497
471
660
444
487
453
408
555
632
451
545
465
806
509
497
434
827
491
452
403
540
664
325
557
500
615
517
561
305
739
476
516
549
528
611
482
436
474
642
490
495
427
583
679
453
361
528
643
529
427
479
626
530
423
577
542
539
541
424
529
560
522
452
449
598
527
496
387
713
546
449
266
884
443
501
520
516
553
723
430
404
678
593
543
314
618
576
510
382
520
510
534
500
333
588
567
363
463
504
517
523
445
462
657
504
402
471
553
575
437
427
669
541
450
475
446
541
594
571
307
504
881
451
366
630
649
460
531
273
719
595
469
471
661
516
441
373
770
545
547
437
504
623
526
480
470
493
639
455
335
584
675
453
469
415
671
457
470
509
536
585
493
379
510
676
439
427
478
588
530
520
409
625
546
424
602
506
538
652
442
449
685
469
496
382
617
566
509
359
717
693
495
486
464
674
465
434
434
609
515
608
261
565
735
455
491
514
699
521
460
591
553
549
428
469
483
628
499
455
561
594
479
511
583
592
546
470
416
496
717
446
491
519
560
465
551
382
683
623
497
401
477
569
502
470
498
648
470
572
474
545
680
476
271
575
518
461
488
549
697
508
464
314
666
479
453
434
502
673
492
450
580
577
529
381
493
652
674
480
699
442
514
573
505
411
531
506
451
480
543
642
490
352
561
513
481
424
606
505
614
437
422
572
441
557
174
679
522
520
542
533
727
479
433
568
616
345
541
379
642
673
458
536
467
481
494
432
469
579
547
477
402
569
613
590
445
523
535
543
475
337
770
643
473
370
517
609
592
409
563
598
557
569
314
566
530
466
425
693
658
496
535
469
643
497
485
358
607
418
463
382
515
804
465
440
517
643
557
471
452
592
468
463
345
590
596
496
629
502
595
477
682
297
830
687
497
439
484
552
477
593
465
555
562
468
423
653
509
519
355
535
607
661
436
416
643
455
397
440
650
519
530
407
699
500
501
733
392
620
563
484
390
558
613
485
366
599
698
477
477
484
680
446
509
569
590
614
467
384
453
632
453
577
473
584
625
455
345
757
488
470
348
534
582
521
444
447
674
540
506
418
578
541
551
408
518
634
508
292
693
707
507
582
337
568
555
482
329
761
574
471
532
452
562
546
478
511
570
715
431
503
478
594
525
384
579
647
490
622
372
652
487
503
303
554
485
477
409
502
578
501
618
402
666
491
514
405
488
659
488
510
500
628
526
495
413
808
631
493
479
511
586
462
489
357
655
679
437
507
503
574
483
382
523
668
520
448
501
588
544
498
421
700
584
467
438
536
590
490
526
452
617
513
496
365
573
553
499
505
475
648
472
442
449
619
589
323
413
627
439
595
442
545
601
490
447
609
697
526
480
623
456
548
430
389
546
625
520
495
418
701
551
462
465
662
492
642
349
651
616
494
509
417
516
597
483
359
633
492
673
315
578
583
549
500
404
607
536
526
553
597
527
509
467
487
618
558
448
551
505
678
407
354
650
538
465
344
547
769
378
484
579
611
513
485
549
679
380
583
381
412
820
467
464
497
644
519
498
447
633
592
343
418
476
794
486
464
461
529
471
596
447
592
562
542
376
521
620
514
579
442
443
517
673
304
584
647
485
430
637
470
430
550
474
532
528
530
466
539
597
417
460
476
627
530
442
326
1003
476
631
273
682
618
461
298
515
698
477
452
534
633
472
481
381
543
562
418
378
699
580
650
637
472
655
500
651
428
515
541
580
398
501
717
539
392
478
550
677
456
397
623
513
551
279
501
632
480
493
330
664
611
432
190
589
345
687
254
581
592
534
492
383
541
497
532
279
844
579
465
455
576
639
511
463
461
516
496
199
550
403
574
589
352
410
756
456
466
416
666
540
421
449
616
555
274
613
421
730
496
440
569
568
490
481
388
679
587
282
569
525
675
604
471
339
770
468
447
427
612
695
441
479
320
702
655
339
533
568
559
376
341
684
518
702
191
469
549
446
373
526
675
526
362
717
548
526
361
344
547
583
545
607
447
716
609
461
290
571
700
439
354
463
534
698
464
488
516
447
599
258
767
663
547
418
572
494
675
573
320
687
490
404
412
574
672
525
379
470
622
477
509
505
663
514
519
426
647
403
447
417
487
668
499
395
440
786
485
466
417
613
518
454
465
486
649
511
552
369
570
501
568
330
636
699
469
415
537
660
775
252
491
625
475
534
453
510
762
576
385
537
566
496
430
539
562
568
455
494
566
465
422
491
662
535
641
488
531
754
510
525
477
567
542
438
363
531
621
526
849
293
521
611
545
328
533
585
536
485
570
570
545
397
485
683
420
472
544
563
721
488
392
410
749
434
485
374
619
547
302
542
544
609
386
399
482
573
489
554
485
751
594
461
392
601
653
453
419
541
728
469
455
524
444
711
452
406
578
546
472
570
540
597
562
444
499
492
612
503
546
637
551
457
339
563
577
492
355
546
536
468
465
397
656
488
465
343
536
637
496
556
454
570
480
464
406
592
555
458
449
486
664
378
593
482
793
481
624
435
499
584
492
395
473
833
498
411
434
686
504
337
459
523
491
574
377
485
697
633
482
382
635
462
499
469
612
557
591
266
542
522
553
404
488
595
536
533
379
598
564
492
268
440
837
476
435
493
712
472
441
458
590
577
494
477
468
657
564
500
417
699
466
696
471
620
579
485
335
520
469
546
380
551
588
515
497
415
623
620
456
418
628
590
550
504
489
632
473
427
452
539
595
476
266
491
664
400
635
410
606
457
464
371
589
680
473
482
468
664
478
476
457
542
631
477
361
634
626
490
465
631
567
575
423
426
560
501
517
395
695
506
493
425
364
837
486
452
446
689
470
397
453
644
483
588
179
663
591
647
439
492
663
505
407
500
601
499
636
362
512
625
512
490
453
666
507
479
478
557
630
496
479
449
661
533
482
377
616
794
518
480
558
482
511
321
637
628
486
492
469
724
484
479
471
626
531
441
454
576
541
671
406
444
520
533
469
412
609
567
521
372
519
522
695
355
509
789
462
410
448
621
596
450
334
565
496
445
531
529
548
675
360
461
624
505
521
361
545
577
540
541
346
754
479
568
343
698
536
456
444
492
597
659
462
424
701
652
489
441
575
530
456
415
511
587
515
450
446
846
520
452
499
599
558
421
475
499
638
508
359
643
547
447
506
416
552
598
523
344
504
699
499
483
347
749
526
444
463
593
528
558
477
557
657
507
535
469
625
502
564
348
688
550
504
404
563
590
531
406
579
605
516
510
525
543
676
501
422
629
521
614
390
525
636
523
446
428
596
546
498
438
472
803
444
423
639
606
497
470
409
491
600
497
404
517
678
593
398
636
559
539
480
417
606
503
488
323
583
639
540
414
598
560
492
480
464
552
576
560
377
601
676
500
449
495
549
522
470
377
804
500
409
626
559
573
556
506
422
698
482
506
447
647
569
366
484
594
653
567
483
469
536
664
353
616
644
566
474
471
541
657
464
390
494
519
539
466
380
699
441
658
429
492
663
468
543
451
506
747
461
444
591
576
449
416
657
585
599
504
452
697
407
602
513
560
495
574
368
482
583
615
435
412
721
495
496
406
652
565
468
379
494
595
545
415
493
698
511
465
454
607
543
579
297
577
647
556
453
434
623
482
349
521
577
535
486
466
469
560
470
585
446
656
533
365
529
574
497
453
476
574
610
442
538
469
684
471
493
265
648
491
532
412
642
615
470
470
446
592
529
478
449
622
504
479
469
690
539
454
475
541
645
451
497
459
576
463
463
407
568
626
506
460
447
636
583
487
454
638
646
462
377
581
596
426
632
463
672
521
430
442
636
513
480
437
552
584
429
576
457
640
520
436
527
544
486
612
436
559
558
547
518
408
616
504
559
357
620
549
479
428
665
524
746
435
460
671
483
496
421
500
609
489
356
616
576
498
400
351
887
453
381
572
732
465
382
344
694
604
460
558
481
670
473
451
415
657
454
546
319
647
551
473
494
471
628
466
526
469
548
583
521
386
552
775
506
375
617
646
512
499
426
561
608
485
400
587
593
480
438
454
562
611
483
528
616
542
458
336
542
561
600
442
634
674
491
477
462
641
495
497
333
703
835
444
540
582
562
283
772
291
440
582
433
276
682
549
432
646
366
611
607
300
322
1023
432
570
307
671
556
431
520
548
572
544
484
437
698
505
491
389
572
562
585
401
715
747
546
405
422
617
717
428
214
687
531
428
474
516
568
487
527
410
559
606
630
363
550
656
373
408
543
592
536
592
418
604
539
389
371
654
553
493
470
468
619
403
618
504
583
597
326
555
660
586
461
499
453
756
447
449
599
678
568
590
377
556
493
631
495
437
625
535
423
370
656
478
557
566
451
732
559
395
586
653
502
446
406
645
514
520
238
538
616
491
437
742
444
517
503
451
534
723
484
307
610
605
493
403
529
617
500
499
446
636
542
452
261
614
481
502
561
416
619
490
448
400
790
584
478
355
737
505
496
491
457
651
510
485
545
670
544
446
377
589
513
486
486
521
583
623
458
453
525
642
553
361
640
528
500
450
511
685
464
518
349
597
457
472
501
514
547
589
517
463
649
512
610
382
670
491
481
440
568
587
497
467
426
697
555
470
435
696
495
438
490
509
592
576
464
457
613
517
588
314
763
460
595
554
454
726
461
366
601
637
552
479
485
726
450
877
356
545
588
564
414
453
547
599
497
449
705
486
580
320
592
764
635
410
499
591
498
445
482
659
516
511
366
577
620
470
465
367
713
416
477
487
548
610
467
342
696
561
456
355
561
504
535
546
413
659
542
505
341
609
548
480
466
474
549
615
476
430
676
519
491
374
532
720
480
414
542
515
662
417
466
628
555
508
344
539
693
454
454
462
603
597
507
412
661
518
460
410
611
615
436
707
449
626
520
466
453
558
547
547
412
589
527
547
364
473
617
541
494
374
620
463
495
371
623
604
410
497
416
641
538
534
439
679
523
460
448
630
569
473
383
501
703
468
411
475
591
600
544
434
659
621
467
344
599
568
537
502
424
795
466
509
480
507
601
473
354
564
603
496
504
484
614
510
378
507
572
602
487
495
511
571
526
481
478
611
506
530
319
557
563
458
412
484
570
492
489
489
