451
453
519
613
488
604
426
626
431
615
541
581
641
420
460
664
511
610
444
554
525
518
388
579
561
579
568
197
791
605
498
512
429
735
451
496
406
755
521
505
400
482
625
699
446
456
516
682
482
488
595
561
543
470
503
632
509
579
465
659
495
455
519
575
587
467
386
724
629
528
404
695
451
612
452
462
650
525
436
423
607
596
442
696
493
662
546
511
430
556
530
434
399
546
637
532
449
410
676
561
410
358
775
465
497
419
517
712
442
552
441
531
553
425
415
653
536
410
443
591
559
558
492
460
553
464
501
479
608
572
542
379
547
664
472
522
433
658
480
450
436
546
574
451
432
533
583
522
447
655
530
537
503
401
698
443
475
453
530
650
508
436
459
626
618
514
410
611
489
489
424
479
698
452
522
321
685
646
474
467
548
555
568
300
515
633
554
412
464
692
534
443
446
631
481
528
345
762
589
625
416
448
648
577
410
516
637
506
523
483
500
635
520
433
383
658
467
521
402
620
499
445
396
495
610
435
543
426
606
480
480
336
707
538
528
353
514
632
503
465
463
544
522
457
467
646
484
625
300
568
637
462
713
368
619
508
451
429
636
560
488
398
486
752
532
431
494
622
517
467
464
535
671
464
329
489
599
500
375
528
589
533
564
313
698
429
449
476
560
640
537
506
435
551
545
508
340
562
662
452
420
474
681
472
478
508
532
639
439
429
548
608
459
328
642
681
537
424
414
663
517
474
430
574
872
430
392
533
494
590
338
475
665
522
458
396
529
551
432
390
574
624
514
476
468
660
527
503
394
628
499
483
436
499
649
532
468
515
799
420
503
635
582
498
445
426
465
663
479
447
598
631
621
483
449
527
605
430
321
530
656
541
468
489
697
448
696
455
748
648
486
384
474
595
516
452
480
677
577
483
353
577
568
471
397
519
521
639
404
431
687
517
471
401
548
531
504
459
605
757
452
531
429
633
489
496
376
547
647
372
639
457
643
570
503
411
650
499
479
358
611
576
585
341
526
671
501
430
495
519
630
514
391
687
703
486
429
454
508
642
433
536
625
588
519
308
527
558
514
503
467
696
634
457
460
753
502
472
416
546
568
560
393
416
618
694
432
686
640
553
564
358
513
692
442
457
545
767
473
346
543
717
472
493
488
483
532
501
384
531
600
508
501
561
613
483
557
345
524
543
534
488
454
680
477
472
491
588
555
497
367
600
530
623
379
354
729
495
467
591
606
515
493
366
634
668
404
433
698
536
697
437
466
556
531
429
296
598
630
455
531
389
736
496
360
466
623
581
436
586
352
854
467
555
502
605
504
409
436
727
550
459
452
621
512
487
580
449
519
469
479
453
697
519
524
428
524
738
418
579
507
618
533
505
438
522
675
466
429
510
668
463
476
476
608
457
493
500
694
475
664
179
732
547
401
304
744
635
393
513
463
655
534
399
379
588
556
459
553
278
721
652
431
394
582
646
423
362
596
566
539
452
328
1023
431
523
397
508
587
440
312
567
690
436
602
271
819
459
465
418
593
465
519
333
512
598
599
442
486
621
503
585
379
845
470
504
220
707
562
409
582
524
559
559
488
445
699
495
564
403
584
463
535
456
470
595
607
477
373
516
591
643
328
571
628
509
499
344
763
523
473
483
691
437
417
509
480
657
520
476
387
557
574
488
437
642
539
458
429
498
606
562
435
609
682
550
525
441
634
553
510
347
533
651
638
353
576
546
511
575
366
703
552
494
346
525
641
540
508
317
1014
499
536
410
516
535
362
480
467
592
571
494
397
585
467
499
436
670
625
405
489
462
584
445
516
510
635
638
432
347
644
509
487
361
603
607
499
467
479
676
373
542
425
543
614
495
307
578
506
530
492
469
622
495
613
413
514
578
469
403
557
642
463
603
328
689
525
424
446
562
515
483
349
556
662
498
411
697
535
558
483
302
792
536
444
502
552
749
299
595
363
645
551
531
319
570
537
660
282
522
761
642
426
425
772
429
487
228
887
482
432
510
491
658
453
478
534
589
637
543
432
658
479
459
292
529
697
653
447
445
663
514
455
344
696
542
485
516
486
689
473
462
393
628
465
467
444
605
495
574
330
528
661
643
438
445
681
500
509
437
611
562
503
388
530
646
505
547
511
625
498
511
409
752
519
476
417
624
626
478
492
486
652
516
482
409
615
557
537
337
526
697
470
482
435
698
516
515
404
683
624
456
381
602
653
550
472
497
665
487
437
403
660
641
446
428
496
661
458
449
457
607
535
579
422
544
629
496
400
498
686
572
539
438
621
497
605
412
588
508
572
420
459
588
541
491
367
754
474
397
407
682
486
556
363
665
590
514
451
492
536
473
521
369
678
531
504
369
506
644
579
493
598
548
667
420
316
716
506
560
441
445
729
441
455
430
802
465
368
567
486
535
700
324
432
640
485
467
378
636
676
466
379
691
701
473
395
523
628
468
455
503
736
493
490
386
716
550
477
365
427
652
521
491
419
698
490
472
523
534
603
389
497
449
702
516
469
452
652
503
489
504
653
603
484
374
568
621
480
385
529
483
607
451
425
511
634
390
399
532
530
500
433
498
635
528
488
478
526
497
454
529
506
575
537
455
423
548
551
502
432
575
721
442
432
512
748
531
455
481
627
514
450
399
609
616
490
411
498
654
491
499
460
620
579
520
355
771
553
538
345
455
720
566
488
514
607
570
317
399
541
639
481
560
469
618
560
496
443
737
633
490
442
440
752
437
466
467
744
431
556
396
566
592
505
333
749
556
245
652
480
613
496
470
373
481
716
444
481
638
496
640
441
458
622
673
438
456
601
508
461
298
736
642
472
437
470
623
455
465
375
782
424
606
494
559
540
579
408
471
699
545
458
444
703
460
514
353
683
643
482
453
450
580
635
438
554
635
624
474
420
557
549
567
412
609
625
509
470
404
573
618
446
371
585
537
490
459
414
562
698
522
447
887
481
597
339
642
507
533
415
391
661
488
542
537
576
677
497
286
543
602
439
396
492
594
823
322
393
915
442
462
387
632
573
449
612
421
632
452
500
453
693
475
627
336
517
853
434
479
506
543
460
532
403
584
555
437
426
578
537
447
421
496
620
482
514
442
643
516
590
284
762
785
528
327
559
617
529
367
507
606
532
446
396
579
501
657
222
736
540
795
479
449
677
549
359
449
546
586
487
483
469
616
507
533
571
574
587
504
335
698
570
517
399
497
631
465
548
371
677
555
593
353
529
753
392
508
471
730
509
445
491
655
510
423
448
513
625
614
426
467
651
574
409
586
619
547
431
484
514
609
700
374
449
619
626
412
445
620
506
461
525
470
729
411
480
515
754
349
643
361
599
700
284
523
538
683
502
478
414
787
537
463
352
745
474
475
398
571
519
732
261
752
738
452
543
450
489
573
411
421
618
553
485
258
542
644
506
582
397
664
630
456
443
476
730
461
447
390
752
521
402
573
678
580
448
338
541
537
512
543
467
551
551
485
311
875
470
540
381
566
598
474
473
451
686
625
617
415
642
553
306
367
533
547
555
543
428
684
401
656
354
632
541
699
371
514
628
472
429
492
698
546
460
475
604
538
414
410
531
576
491
436
546
563
508
456
469
645
499
469
385
592
559
641
438
514
611
556
477
425
541
567
499
397
556
553
487
520
506
564
474
328
680
448
799
455
373
617
607
530
474
495
606
491
492
388
627
481
481
264
605
589
540
366
537
517
521
520
548
645
529
474
365
505
636
466
490
471
680
508
492
441
624
507
596
308
536
735
502
460
512
591
560
445
498
539
578
400
591
507
590
518
604
490
493
454
480
482
492
797
467
381
545
565
478
454
423
669
457
626
359
672
531
447
237
578
593
647
448
450
607
543
459
428
683
508
469
491
757
557
506
540
429
674
466
562
448
670
606
480
417
511
617
460
471
508
639
527
436
474
614
549
492
454
607
512
515
693
419
636
556
476
428
500
615
318
540
557
660
544
548
469
560
610
490
364
697
582
519
577
685
480
530
494
365
452
447
667
350
475
721
438
509
624
854
486
503
498
512
442
432
462
681
559
478
318
538
635
508
494
464
625
571
468
400
642
594
369
412
521
595
525
361
411
652
548
487
377
591
491
339
568
494
592
529
451
420
603
543
455
456
545
602
455
412
584
584
493
381
617
540
640
455
411
566
450
520
358
514
580
574
514
494
638
510
531
420
544
653
530
392
461
1012
364
469
483
607
491
449
383
641
604
477
433
506
573
598
396
451
683
485
494
443
557
572
478
420
508
765
608
458
484
637
466
437
440
591
531
545
432
444
699
423
556
414
668
483
488
268
685
501
527
427
576
627
651
377
651
625
379
731
332
578
523
558
367
478
573
547
463
443
663
483
468
373
602
613
446
412
541
644
606
433
425
603
510
512
417
550
562
554
345
526
662
509
455
444
748
682
380
394
663
511
447
619
465
621
554
477
455
616
519
545
443
617
434
657
293
475
798
637
625
390
759
513
412
233
749
459
538
231
617
613
392
585
311
659
557
543
353
545
559
539
385
665
576
623
449
472
611
548
398
258
803
524
768
500
470
578
475
448
438
459
644
451
301
829
675
391
531
445
669
506
348
539
525
536
438
373
701
603
515
420
466
729
540
405
455
633
483
480
445
556
592
478
463
432
575
522
438
699
569
439
479
400
534
691
456
400
437
617
488
444
536
661
679
426
401
664
588
471
398
474
669
397
574
373
738
488
384
603
535
314
517
314
696
652
268
586
342
574
565
541
317
643
712
393
425
520
580
542
448
411
663
593
503
375
621
534
475
405
500
638
399
471
528
430
1023
301
376
610
457
584
453
450
596
464
466
516
565
544
477
625
691
603
461
503
418
642
532
472
466
661
588
457
351
763
541
573
426
470
666
528
436
528
655
514
493
465
447
700
351
457
474
699
482
639
382
613
543
513
437
574
496
585
405
468
710
555
432
456
650
491
434
416
532
680
472
426
380
829
406
527
435
612
552
464
317
680
558
374
365
602
479
500
619
307
720
466
610
476
533
362
569
505
485
591
572
691
291
775
535
445
421
520
560
506
455
380
769
542
461
475
653
471
557
409
634
592
466
478
538
596
455
503
408
639
524
524
383
603
604
537
393
428
612
583
478
483
680
510
454
402
581
576
488
426
496
552
515
433
506
554
722
484
257
738
567
524
447
503
644
449
417
485
647
533
533
422
499
664
491
652
444
754
506
403
425
635
526
486
460
607
472
644
483
455
614
537
677
333
621
565
547
332
593
534
524
502
432
660
533
470
445
550
555
507
483
549
581
421
539
459
664
534
456
451
565
488
400
395
670
651
455
468
484
638
491
467
389
690
527
470
400
646
618
493
495
472
654
582
490
436
659
524
471
357
618
548
560
460
463
635
487
535
466
699
611
455
398
581
576
494
435
559
615
491
543
455
685
476
408
248
727
681
496
533
399
729
419
499
502
612
524
507
403
521
584
487
471
447
534
546
596
482
578
652
484
323
556
529
475
405
612
560
537
458
484
552
556
481
393
459
405
543
441
464
697
507
320
463
581
700
473
289
642
519
375
624
434
692
622
335
519
428
658
340
539
471
621
480
353
478
621
506
316
480
511
437
503
238
565
1023
425
436
548
675
485
374
446
644
502
576
360
578
600
516
489
465
593
548
507
402
655
550
504
421
491
627
554
441
397
852
439
195
366
544
538
435
285
552
636
540
542
451
820
496
511
446
611
581
454
456
570
528
532
447
491
533
536
491
443
627
651
477
348
497
662
480
417
481
670
479
433
463
527
517
555
215
608
637
615
423
454
618
482
519
440
586
554
535
406
442
697
444
484
495
653
513
388
470
626
536
636
380
508
588
557
540
469
695
488
454
566
584
484
530
400
542
635
631
471
423
671
440
564
426
560
673
474
386
558
542
488
410
490
664
463
511
629
583
671
487
366
602
587
595
417
433
790
529
364
524
553
569
479
446
505
647
474
508
475
631
508
570
431
516
714
404
426
494
641
396
298
459
628
545
510
299
754
439
443
515
515
628
457
450
483
643
502
475
469
524
608
509
423
577
677
469
509
487
590
476
545
387
660
527
441
518
476
668
498
472
448
757
485
450
440
644
531
490
398
503
662
494
473
412
650
523
456
431
544
568
491
334
530
643
517
404
528
533
490
557
501
539
519
599
389
469
634
502
480
437
637
522
488
384
694
544
492
472
511
707
479
497
448
559
568
455
411
779
614
599
453
495
664
477
495
445
634
573
493
391
539
524
351
414
498
572
498
477
443
583
743
437
309
772
463
479
455
460
620
483
574
232
649
496
413
485
557
643
431
375
512
682
511
473
451
635
457
676
475
590
566
382
605
328
995
431
531
515
563
377
297
592
636
532
630
455
539
669
386
396
532
578
338
711
364
583
590
508
371
423
715
447
700
397
632
629
535
467
541
632
632
224
440
530
485
576
495
457
699
435
476
661
452
509
163
721
511
459
531
558
581
458
467
521
635
550
291
449
498
509
569
395
427
654
282
430
508
552
598
433
453
475
604
497
411
568
527
455
817
455
643
652
492
442
466
580
695
381
274
832
554
182
637
654
514
470
548
481
469
627
609
278
698
533
477
356
546
510
402
641
404
564
497
451
386
543
575
97
499
644
569
456
457
412
555
659
364
484
688
513
476
649
645
657
527
242
557
739
430
539
405
676
565
673
266
697
439
623
248
552
693
355
649
517
698
487
610
373
576
570
431
340
490
642
536
524
197
1009
504
476
557
539
645
564
480
525
541
513
503
487
474
626
127
552
277
716
465
478
449
595
676
480
449
505
788
393
323
529
617
497
331
516
578
575
484
510
698
526
476
454
609
698
506
474
423
582
603
401
402
683
501
459
349
615
481
446
275
615
629
562
467
463
668
447
308
775
451
627
518
425
434
536
646
468
410
762
438
353
408
279
641
293
556
406
591
588
456
316
853
523
542
267
693
657
562
487
682
748
474
406
493
782
458
732
111
748
621
279
450
661
423
748
588
467
664
502
396
385
175
537
552
375
622
606
639
490
490
351
1023
135
381
537
683
246
432
426
670
458
610
307
583
476
437
434
484
574
263
548
438
823
460
490
497
651
513
461
98
710
394
606
378
467
695
451
677
430
623
633
447
269
627
667
345
420
552
800
443
507
461
721
447
671
319
743
656
537
265
640
525
498
424
331
762
385
407
594
532
683
446
503
434
682
298
671
699
547
546
352
449
224
813
470
486
652
594
563
504
533
561
530
429
433
477
658
631
531
324
860
426
228
564
478
570
478
500
473
656
642
394
466
536
467
210
593
623
404
789
343
631
526
564
431
631
567
521
575
479
527
657
117
377
349
604
760
306
495
637
588
493
387
540
654
454
412
501
753
493
574
626
603
450
518
235
648
409
693
382
546
667
551
628
273
698
679
461
463
671
523
479
541
489
669
663
485
516
584
622
469
241
662
692
406
407
618
484
702
474
410
601
818
640
452
508
621
417
674
472
582
584
229
743
476
481
447
459
489
753
266
819
474
668
484
690
451
602
518
536
508
553
610
488
406
414
452
558
451
375
677
530
387
515
748
561
321
425
508
713
447
443
422
812
593
492
406
677
643
458
404
606
618
505
429
473
716
457
492
437
772
512
218
403
602
498
691
400
268
913
557
453
438
659
539
488
346
671
619
606
540
766
601
550
555
508
569
465
579
453
449
530
494
360
637
484
515
607
374
696
699
390
418
491
626
532
547
540
627
531
486
423
609
561
421
458
460
651
591
408
644
542
641
484
522
593
492
445
467
539
625
492
466
448
617
719
372
466
577
488
564
338
537
614
500
624
440
599
557
460
587
531
557
488
421
559
567
492
490
444
678
631
451
312
670
516
494
330
562
729
513
446
654
526
602
407
455
570
526
525
421
501
696
512
451
454
642
474
504
430
664
528
500
369
500
548
562
661
470
595
695
545
421
576
559
507
385
524
671
501
446
416
741
470
491
421
669
558
471
385
576
650
535
470
554
485
604
525
396
630
564
472
289
487
626
587
456
499
554
546
421
416
681
623
514
417
415
807
449
486
408
698
526
461
477
589
704
444
338
485
681
512
451
492
672
500
427
441
564
717
448
364
508
637
749
357
480
677
462
532
302
578
554
491
419
512
622
599
421
601
731
532
541
463
505
576
481
407
471
638
531
630
408
502
582
558
390
573
579
530
305
489
749
507
440
556
608
482
477
476
656
563
472
373
448
674
419
489
494
697
520
471
369
656
524
563
419
485
724
495
458
443
634
644
506
393
581
698
468
311
553
782
466
493
435
619
513
462
223
692
641
425
412
522
669
479
429
453
645
515
592
316
553
542
602
354
535
754
499
354
455
610
495
468
316
699
630
664
410
454
688
496
440
486
656
610
506
360
698
527
449
438
513
604
642
430
432
611
486
421
397
567
617
580
382
518
675
546
487
392
862
514
458
422
610
590
478
379
617
564
535
475
389
784
528
490
376
562
693
476
439
511
715
499
508
436
586
621
468
361
640
591
378
731
457
602
624
465
695
628
513
472
419
613
528
491
486
481
651
490
555
427
620
602
634
378
660
532
427
457
485
578
505
466
466
650
556
501
314
688
492
512
432
546
598
502
462
509
603
517
461
407
515
558
544
420
453
657
536
296
628
500
531
552
393
614
521
454
466
444
697
457
490
475
614
435
630
351
680
453
537
350
650
549
520
585
505
586
523
494
391
633
497
464
449
470
696
487
461
440
657
508
484
455
562
542
434
560
543
660
578
566
470
598
498
505
515
509
647
524
435
513
581
490
486
490
561
723
462
292
626
615
505
457
466
607
549
403
471
684
614
523
192
556
574
570
476
451
596
499
438
497
585
623
447
381
611
582
490
401
512
597
523
472
451
688
505
594
305
621
520
442
418
557
642
401
728
359
528
698
442
570
653
363
842
511
450
654
488
516
418
563
625
521
304
673
562
511
446
538
510
529
319
454
581
542
351
709
491
582
540
474
488
616
503
485
419
602
568
538
434
636
757
465
449
456
647
442
559
415
670
598
423
394
596
552
359
780
311
779
476
531
459
547
525
535
383
517
629
480
444
417
830
501
449
464
504
391
483
487
546
608
478
458
374
615
469
383
574
472
681
449
426
513
699
509
420
476
677
506
453
451
588
445
509
373
585
616
502
497
318
757
490
334
531
549
522
467
341
705
582
545
468
466
645
505
442
431
642
492
556
272
563
664
499
539
528
608
560
422
435
549
439
507
501
536
631
474
501
444
502
679
433
298
570
641
437
376
408
622
447
442
506
682
561
476
381
573
533
487
522
511
823
441
482
170
633
691
472
416
625
419
563
359
529
698
537
497
418
620
679
487
314
657
580
404
340
635
617
496
486
439
598
515
534
397
587
702
327
499
429
690
342
527
183
669
486
512
466
585
624
488
159
580
560
604
571
506
625
661
450
386
690
613
459
341
576
626
527
482
406
600
547
384
457
603
694
555
465
506
695
426
475
479
635
567
590
370
593
534
468
489
482
628
506
562
374
677
533
474
406
504
747
422
462
550
618
499
496
463
571
609
471
443
623
682
422
395
534
696
682
537
485
694
527
437
395
806
611
480
452
665
603
600
404
523
658
573
627
323
584
591
530
436
486
794
197
493
608
654
512
605
501
499
697
498
170
617
503
760
438
398
804
479
553
365
504
659
640
457
450
688
299
491
430
514
501
451
580
538
616
538
354
456
725
480
439
429
652
463
563
390
692
552
550
278
554
647
511
406
647
680
474
535
413
484
699
392
420
510
688
562
432
413
654
638
462
385
558
543
453
513
487
601
572
442
440
746
479
481
516
501
596
478
378
405
628
542
450
496
699
479
489
366
696
556
472
409
508
610
548
477
462
549
640
510
494
700
627
507
451
462
647
532
476
485
613
674
368
466
462
676
370
357
483
638
557
383
402
779
485
543
390
494
698
437
493
404
728
352
672
259
646
580
568
335
571
605
564
419
550
532
528
412
441
782
524
473
481
545
628
473
519
475
568
629
331
489
519
526
516
435
545
607
485
326
681
629
624
385
493
608
626
460
507
512
616
372
399
501
660
516
499
447
696
596
572
416
558
665
297
562
438
459
960
340
539
691
576
443
358
501
679
484
333
538
533
496
554
239
789
479
586
364
605
585
343
631
575
424
743
402
413
762
514
460
340
634
452
737
397
488
444
667
471
213
1023
459
513
446
515
534
423
459
544
525
735
454
468
754
422
515
454
509
738
483
441
532
626
496
451
483
584
616
279
301
699
543
668
548
623
751
482
365
479
582
630
505
440
522
358
604
592
513
336
637
288
344
675
576
506
472
603
580
637
317
489
569
600
485
473
667
603
463
508
548
694
617
480
488
515
601
437
435
579
507
524
381
536
658
480
690
468
545
468
465
192
663
512
518
292
496
693
492
540
534
550
484
590
384
697
422
576
395
458
562
490
467
444
589
478
473
374
669
632
495
246
756
499
443
484
500
719
445
527
399
577
710
519
270
596
640
472
519
556
837
519
361
528
612
569
451
419
513
682
467
442
473
677
543
582
494
499
695
384
396
521
793
399
393
637
677
460
422
517
515
475
547
335
491
681
557
277
557
497
731
398
445
577
553
435
284
608
652
504
498
453
736
434
445
486
609
563
425
463
482
662
475
536
574
644
485
335
644
500
462
569
309
561
573
523
476
563
451
697
461
471
488
741
410
407
535
706
375
392
546
584
545
587
473
622
564
461
324
554
661
510
482
483
597
622
453
539
579
538
434
492
448
661
528
575
448
584
626
420
459
744
468
634
407
629
601
473
516
452
607
524
438
445
620
588
476
471
498
473
480
307
492
622
527
472
427
569
587
519
308
550
630
415
453
646
528
475
476
449
598
571
493
421
496
623
503
424
614
571
591
461
494
515
527
463
394
548
625
494
476
420
647
534
502
338
694
534
292
499
555
669
612
479
453
670
522
483
372
512
636
514
340
664
448
507
418
425
786
408
631
362
776
483
478
410
443
646
462
475
521
793
490
491
445
545
512
537
429
622
604
550
528
375
731
483
502
455
474
755
413
422
548
633
413
478
440
650
504
500
391
562
632
429
398
613
665
510
562
484
586
508
489
439
531
523
422
572
444
840
477
459
490
699
445
788
208
739
594
494
323
644
541
636
534
468
568
535
439
425
583
590
709
320
498
610
508
479
447
648
467
471
391
677
558
507
617
461
597
617
429
429
638
510
484
507
537
661
448
467
503
620
475
491
419
614
641
415
375
577
506
519
407
536
537
561
525
519
652
585
475
474
582
699
510
444
508
711
452
505
460
660
488
540
314
561
576
473
482
492
576
482
453
352
629
562
580
378
553
576
401
666
454
606
616
501
425
578
491
498
311
783
581
475
552
439
689
409
676
461
623
590
493
349
530
630
447
482
536
593
591
397
467
823
522
454
490
689
551
505
423
542
665
502
435
469
709
537
484
437
515
633
454
481
499
616
517
492
437
559
906
394
444
605
506
748
366
481
724
541
500
449
548
544
499
425
537
516
463
451
398
702
503
538
447
580
553
529
383
530
565
465
389
668
548
489
680
389
635
494
367
420
505
592
443
632
423
614
541
477
446
682
491
519
390
629
677
476
489
453
699
475
460
557
612
503
462
454
542
532
493
458
590
607
439
498
391
644
393
502
200
522
656
508
466
424
698
473
507
548
617
558
458
517
480
718
491
485
471
628
499
443
493
699
572
486
403
512
620
420
661
474
651
555
455
436
520
530
461
420
584
595
637
407
559
746
491
500
430
626
517
483
386
651
626
461
413
342
539
545
698
437
684
224
521
46
712
596
612
523
499
640
409
477
518
608
693
561
436
579
696
461
434
517
698
536
450
408
666
537
547
360
523
679
509
459
463
582
656
331
454
699
605
420
295
529
643
481
570
433
656
500
433
443
626
643
407
377
546
575
476
440
496
642
495
454
435
615
502
491
308
559
657
472
471
462
664
478
457
445
656
617
487
379
504
645
604
471
459
661
529
468
263
552
549
530
429
585
612
434
455
400
680
494
540
584
597
584
521
393
433
577
482
524
505
592
517
509
430
588
502
553
375
610
612
527
489
448
737
515
540
415
510
603
312
502
384
613
541
422
496
641
430
557
465
627
462
519
256
623
626
553
462
473
653
583
469
307
554
537
494
413
653
588
648
419
617
555
528
459
466
440
596
379
469
573
642
532
504
523
582
491
600
412
676
588
446
393
477
618
651
466
520
698
549
452
151
757
336
503
428
488
678
514
561
466
517
548
624
395
620
609
521
474
483
701
416
558
428
498
522
473
342
632
311
524
230
565
651
590
463
571
693
670
427
501
533
585
659
348
514
788
358
505
430
652
586
454
323
690
577
439
464
695
550
268
521
507
731
671
525
498
497
657
364
547
545
664
423
515
502
642
377
472
331
586
677
337
480
449
762
316
369
454
699
434
471
278
616
538
321
261
580
686
208
258
830
540
605
547
395
643
280
651
302
438
661
551
439
538
660
421
489
485
778
488
503
447
454
715
580
525
464
684
388
447
395
678
547
627
540
450
652
514
409
360
663
519
540
477
559
565
408
500
579
769
468
635
466
658
431
453
461
510
627
443
588
472
562
715
420
533
708
426
529
323
576
494
692
514
346
824
467
439
466
613
493
541
385
585
626
493
388
479
698
534
594
472
683
552
432
479
442
693
468
289
533
524
590
407
780
510
475
503
475
476
477
698
475
427
1023
629
370
508
571
583
430
478
502
693
421
520
178
584
510
436
479
1023
474
590
376
497
424
550
483
409
672
562
516
386
651
603
452
390
697
568
384
703
421
461
540
622
485
560
719
439
342
488
501
533
425
647
575
536
417
339
636
654
524
457
621
587
483
503
503
518
501
515
622
437
887
430
354
686
465
716
421
500
629
475
287
624
602
473
529
397
655
498
488
607
479
551
444
495
218
741
656
463
588
475
430
484
755
339
534
486
496
354
681
555
595
427
768
580
462
478
425
612
571
426
327
621
634
467
450
537
590
446
254
570
614
538
514
403
714
444
710
141
669
615
494
704
307
859
314
565
434
592
539
268
642
484
464
481
434
306
630
634
476
446
654
612
462
452
845
944
467
328
540
633
495
421
475
584
554
486
268
592
623
362
448
659
478
660
502
486
557
608
533
359
672
522
700
435
501
621
859
361
515
709
619
330
288
699
416
428
430
601
601
356
680
388
658
546
481
381
635
481
699
509
480
503
710
470
639
613
658
684
321
1023
565
552
351
548
649
636
245
487
651
553
644
423
461
679
579
507
492
696
477
409
323
587
473
637
370
767
694
501
232
557
466
977
489
186
806
336
429
0
874
620
505
246
545
702
585
466
512
523
694
0
502
571
149
215
568
492
545
644
603
391
569
586
451
459
624
670
804
221
666
857
516
600
547
734
389
416
289
501
734
487
468
593
746
363
542
698
573
518
585
139
775
479
239
565
719
554
504
607
500
794
448
481
55
836
470
596
699
471
595
432
521
416
559
537
598
507
552
587
560
590
342
705
535
386
474
524
699
478
382
554
796
410
455
416
626
568
361
523
505
485
450
266
554
656
528
425
517
551
484
468
381
648
585
585
383
498
744
437
521
444
678
480
451
662
649
635
442
439
493
631
447
523
436
623
518
449
590
550
554
482
438
593
697
513
428
549
608
480
457
435
621
578
412
470
494
623
440
684
441
608
468
423
487
676
510
467
317
674
571
455
520
376
786
422
509
499
633
508
519
346
498
537
454
645
466
565
614
447
494
549
571
463
492
480
658
473
443
551
621
484
497
374
686
481
508
422
568
653
469
513
396
676
431
535
466
508
335
841
306
578
676
485
520
422
653
501
499
423
596
578
451
399
500
619
486
435
439
624
543
545
372
607
454
665
271
540
685
498
374
473
615
729
528
401
661
419
544
443
522
600
530
538
477
590
466
624
319
670
605
518
427
506
673
447
537
457
695
712
419
669
347
571
448
501
420
649
542
535
384
682
192
584
379
542
754
408
388
510
710
414
694
319
556
584
412
540
604
538
443
458
578
560
509
458
532
508
501
484
335
490
601
425
445
476
661
669
438
474
648
476
501
446
457
803
371
352
590
581
513
495
537
693
593
501
436
522
683
380
402
478
690
494
378
668
648
511
672
413
482
562
521
389
476
590
763
135
647
608
531
465
439
515
487
476
453
536
698
487
545
501
670
596
583
481
538
543
422
380
615
650
502
426
560
510
357
798
288
658
573
533
413
474
522
529
433
481
671
529
494
606
624
572
431
396
440
694
472
489
487
707
455
541
316
631
516
679
330
516
696
474
514
505
507
590
417
484
658
480
532
440
439
611
444
649
308
652
426
620
343
577
541
506
402
420
676
467
502
445
650
476
516
423
658
488
525
373
562
700
463
487
459
647
564
477
382
692
493
489
438
519
698
579
396
618
606
498
416
473
605
518
517
403
463
697
519
414
498
851
461
532
529
534
542
542
295
553
696
573
495
431
678
500
453
488
570
621
391
455
463
746
541
459
383
657
635
495
439
610
601
457
350
510
677
521
393
696
488
604
430
422
572
638
437
396
586
659
502
535
486
690
533
420
433
544
506
599
347
493
760
578
452
464
713
484
456
430
724
482
494
454
404
615
618
461
470
641
456
534
466
643
657
486
386
511
670
494
423
429
643
529
536
424
569
557
638
349
467
709
557
456
488
553
675
506
399
597
500
512
279
507
631
747
473
530
706
519
476
453
699
605
522
417
503
578
536
521
528
530
501
548
366
590
650
462
400
482
787
534
482
524
628
523
496
401
539
593
491
372
501
598
513
490
391
668
569
470
462
523
648
424
391
565
682
529
530
417
698
473
496
481
580
567
493
400
504
620
538
488
462
629
503
468
389
635
820
462
425
609
578
448
552
345
652
609
483
445
516
723
494
399
572
690
487
470
446
615
481
476
443
562
594
399
464
489
631
517
362
488
810
390
518
383
698
545
403
572
488
642
560
444
465
673
480
501
436
625
577
499
349
496
694
523
484
402
692
497
537
529
516
609
491
401
448
834
433
488
436
726
494
492
418
626
547
479
449
486
592
626
471
400
761
648
372
650
638
607
505
216
495
590
601
408
678
536
528
622
331
570
599
544
399
486
667
549
435
466
699
600
451
498
510
505
485
413
402
818
490
461
461
647
527
489
402
651
639
486
331
531
653
457
421
536
533
517
464
410
551
544
551
369
530
555
754
459
338
650
547
459
393
596
566
555
405
556
650
424
495
458
686
449
575
406
502
619
457
414
520
709
494
448
505
603
684
499
369
666
535
459
395
493
653
492
474
458
629
533
493
522
461
622
479
528
457
558
796
447
448
777
564
470
404
554
594
495
268
515
619
557
521
475
579
512
496
393
650
556
443
366
463
640
624
444
410
618
569
428
460
575
569
464
361
553
594
517
485
439
639
464
554
385
607
580
475
405
496
630
543
488
489
668
515
484
377
651
613
547
418
489
687
511
464
421
697
556
461
383
538
534
588
399
528
688
498
352
528
613
476
524
417
610
541
434
413
506
658
495
479
464
571
567
434
521
342
670
525
383
524
699
472
289
667
482
564
516
358
681
484
558
301
567
603
492
407
425
633
570
543
438
594
580
455
425
423
637
522
440
423
480
699
410
353
686
650
501
364
558
601
474
480
383
660
549
506
408
635
540
467
453
494
661
519
452
428
673
506
478
478
558
680
459
392
383
611
464
453
453
664
586
488
376
542
697
440
371
522
581
545
464
469
560
517
528
391
666
629
467
261
547
559
420
457
446
547
545
513
415
601
530
460
494
537
393
669
479
449
639
696
485
381
560
755
419
426
524
669
546
415
520
612
521
492
391
520
633
456
376
542
502
607
447
577
520
546
451
471
671
545
451
343
514
542
632
516
482
658
478
497
465
586
613
489
411
514
670
438
522
512
512
515
498
404
619
614
654
280
703
615
537
439
519
622
499
503
454
536
642
487
385
583
676
484
413
494
669
642
449
341
735
492
453
457
620
591
453
726
504
639
538
505
442
476
557
457
464
474
718
457
352
480
698
506
489
401
685
568
462
436
413
618
610
562
352
765
736
434
319
642
442
534
492
461
653
668
579
459
621
529
483
405
540
626
419
415
530
596
505
531
616
512
603
463
269
916
543
375
337
525
643
334
657
441
767
501
322
485
624
483
473
251
543
607
456
544
224
609
566
440
622
536
472
659
433
504
679
387
443
496
594
491
416
544
722
561
451
478
607
564
412
646
485
493
717
439
602
512
695
434
378
507
455
748
439
510
595
508
434
519
573
527
525
379
546
676
426
485
472
727
321
660
472
649
514
440
466
612
438
636
474
389
562
481
408
464
687
568
369
608
478
654
471
262
879
282
759
482
483
609
466
383
281
635
439
804
356
413
830
525
190
652
721
219
808
280
559
553
656
468
473
653
369
491
424
472
583
618
274
588
657
439
465
430
557
589
441
411
768
212
447
333
534
602
453
432
654
673
617
513
250
496
454
442
501
641
581
538
478
344
699
453
446
511
727
437
388
353
796
521
514
481
437
668
351
749
281
639
624
545
214
478
933
463
411
554
888
504
433
422
816
473
491
373
533
614
464
473
430
669
505
440
454
668
521
457
328
648
483
396
602
227
656
567
460
542
545
512
590
503
500
836
449
461
434
558
633
492
362
666
514
496
458
486
615
476
524
499
654
488
476
350
616
557
393
771
621
665
476
482
502
523
475
456
665
515
633
486
401
522
621
410
530
548
611
524
327
476
816
470
556
356
515
613
396
405
558
689
492
604
326
892
465
506
496
635
550
520
351
310
554
391
698
438
602
546
427
312
590
396
1023
343
439
661
397
654
418
619
444
555
554
596
514
531
441
487
551
595
431
572
521
561
576
493
460
686
516
451
414
623
410
410
539
707
781
384
363
602
607
447
431
528
664
497
479
573
674
435
493
376
677
586
450
389
457
471
637
363
849
484
658
579
390
434
758
471
295
696
593
404
646
480
496
697
486
329
491
623
554
451
464
652
510
424
371
626
494
527
384
789
588
408
387
501
648
531
532
260
780
353
529
425
536
589
564
331
643
543
635
401
301
608
567
400
487
496
646
501
226
654
475
552
407
482
513
654
327
507
574
754
486
433
573
637
466
536
409
592
631
459
459
496
485
1023
170
498
779
387
500
284
617
405
719
220
615
616
486
349
447
592
500
511
429
611
497
481
297
574
649
528
429
430
806
401
558
468
575
754
211
578
510
512
516
467
334
679
489
418
598
513
656
642
470
543
671
465
482
400
677
443
552
427
613
415
691
211
669
673
621
403
485
539
474
496
404
532
595
661
332
526
676
467
325
478
587
479
588
333
520
527
698
440
458
1014
519
476
489
611
548
517
310
696
578
476
390
572
547
421
418
454
615
534
468
524
631
367
481
275
536
631
347
451
428
651
493
398
653
521
698
467
440
592
546
421
511
456
601
644
400
400
774
464
572
399
530
759
369
565
569
573
625
468
439
706
473
454
456
552
652
381
424
357
817
532
458
494
555
386
467
417
626
487
663
324
538
752
478
515
471
563
592
435
252
626
545
569
343
481
694
459
567
476
697
485
421
412
596
536
469
228
648
590
424
535
472
474
556
455
424
632
648
484
367
466
701
493
433
433
586
487
561
396
663
513
411
468
563
606
635
396
529
570
508
516
317
569
554
455
406
486
522
792
459
471
712
442
464
506
555
612
565
462
554
635
484
451
463
629
562
495
416
623
443
650
468
366
753
479
554
640
557
389
479
639
477
530
525
330
645
506
558
474
537
697
551
419
385
503
473
472
461
406
715
551
500
642
630
655
294
590
550
425
459
354
570
644
438
433
435
720
599
468
490
519
611
514
72
653
537
567
556
502
656
289
524
285
524
709
511
390
622
556
371
461
495
559
501
605
347
617
590
310
471
531
648
476
525
340
718
524
440
298
871
454
433
198
697
442
573
442
476
619
501
474
432
567
730
432
439
542
682
415
497
441
635
503
462
401
539
698
474
279
572
582
545
404
551
612
537
485
435
549
774
450
392
767
688
436
488
439
606
522
368
647
522
597
504
379
523
587
538
473
429
564
474
691
377
574
544
411
483
417
711
499
506
435
699
449
414
545
611
556
467
434
593
559
387
327
551
614
522
544
540
583
456
483
304
536
537
818
304
464
717
609
387
566
697
458
552
554
598
564
467
605
305
496
946
611
452
650
537
530
55
646
623
459
501
373
594
574
485
442
567
472
662
376
491
620
696
315
648
473
676
424
367
582
545
474
487
625
644
424
289
520
560
618
405
473
607
531
503
344
491
816
378
490
468
514
667
283
452
576
389
707
92
659
359
773
384
481
787
446
454
410
670
541
407
516
431
771
346
499
466
596
394
600
407
615
537
438
568
555
309
788
293
277
1023
458
456
425
612
530
416
515
517
696
679
358
551
555
629
448
562
592
570
411
666
609
467
572
463
479
505
628
452
483
558
649
418
425
559
476
698
464
494
647
579
379
473
727
520
506
446
632
631
439
428
436
550
663
619
309
710
538
454
338
495
678
436
396
498
776
448
469
506
597
560
423
437
729
527
522
433
418
699
450
447
416
760
537
424
398
595
602
457
307
493
696
519
488
394
618
519
504
366
582
646
522
377
461
691
492
492
358
815
557
459
583
566
695
626
357
571
707
379
517
393
488
748
493
450
633
654
324
449
467
698
525
464
474
560
522
428
480
504
611
581
355
497
545
693
438
459
688
615
656
483
486
528
478
487
486
697
517
450
434
723
620
407
480
536
605
455
338
516
590
608
461
459
557
503
467
476
701
400
694
503
441
664
546
468
419
561
766
428
459
557
664
330
445
574
585
509
441
530
646
491
495
467
580
493
508
526
364
737
524
495
490
599
451
498
347
766
589
378
536
515
606
480
472
251
792
482
472
504
642
527
495
328
530
797
442
530
500
609
580
428
493
619
481
459
232
698
563
600
479
385
744
395
481
528
599
505
430
461
369
678
488
577
467
696
483
592
442
578
455
649
364
436
757
670
426
480
642
489
447
435
564
403
908
373
453
720
498
528
471
546
556
531
425
592
644
419
299
648
788
420
463
493
531
653
460
449
606
484
536
460
501
586
541
502
416
595
501
644
286
684
517
412
592
453
597
608
420
551
578
608
405
413
841
462
509
279
622
569
654
487
475
609
535
445
394
741
646
490
353
406
662
390
503
468
624
405
449
533
692
479
574
357
636
528
506
536
512
642
477
498
321
684
505
509
260
710
515
468
401
610
511
550
448
398
624
518
664
441
508
512
485
603
393
728
509
471
384
585
534
485
446
625
573
523
332
385
680
691
423
469
767
588
387
441
545
559
470
503
474
662
503
470
360
794
576
439
409
503
548
479
303
562
623
349
811
330
632
564
428
551
574
529
624
434
481
586
523
443
389
757
585
442
382
523
614
579
447
452
658
474
544
656
535
466
657
341
409
623
583
395
499
724
555
273
536
576
605
475
427
734
543
468
425
442
684
664
488
419
698
624
485
273
635
606
191
685
460
664
583
269
509
619
537
514
450
648
552
446
286
501
797
487
582
447
623
506
393
394
602
640
288
634
427
650
539
501
442
702
475
588
381
553
673
476
414
474
627
522
472
465
684
532
506
430
570
555
508
288
586
577
539
462
415
741
721
407
491
597
523
491
319
530
684
511
451
367
658
461
605
442
560
508
747
166
489
676
489
459
601
536
486
534
492
594
458
559
238
557
688
400
597
482
678
605
481
544
554
543
518
447
507
592
489
362
680
535
634
449
271
698
493
425
510
394
680
488
430
574
610
580
445
427
673
474
638
464
535
561
452
512
651
561
485
516
411
768
578
456
311
782
583
443
435
554
527
699
394
433
630
500
476
452
480
469
488
658
329
678
472
506
365
598
503
557
297
558
578
499
419
395
706
477
535
312
761
602
460
396
547
559
569
517
577
616
513
418
365
498
585
634
350
522
550
560
436
450
646
569
465
329
611
594
523
505
418
788
445
481
335
591
421
481
332
692
499
449
473
560
585
547
434
445
602
517
455
551
625
576
491
392
524
587
557
445
440
616
622
427
380
602
589
483
390
577
578
498
430
514
659
436
619
354
621
397
666
160
562
638
436
562
562
587
619
461
618
557
583
574
312
539
639
339
551
521
547
503
655
335
806
546
459
422
476
705
503
486
539
632
445
482
512
641
587
413
418
484
596
464
447
489
737
591
412
463
682
446
659
392
557
571
646
475
480
516
512
457
425
753
484
444
696
548
627
461
440
533
565
498
450
428
674
352
430
805
546
760
602
344
460
588
438
423
493
619
607
517
391
537
668
429
632
385
550
517
468
461
646
575
439
372
529
632
625
444
346
739
441
350
489
630
503
515
398
506
571
491
492
478
640
496
462
396
636
481
687
373
475
696
369
309
697
726
453
434
375
698
487
317
533
604
627
449
442
476
747
443
483
481
602
501
484
421
584
575
458
429
494
660
463
481
499
723
497
505
454
562
696
622
546
629
894
390
550
346
584
513
425
459
698
517
513
345
505
638
465
621
396
688
469
503
510
553
517
466
436
458
774
378
355
411
770
436
522
410
679
563
518
409
442
714
508
336
647
600
494
798
170
669
295
704
491
428
801
662
456
640
445
739
311
402
455
531
353
422
509
682
698
514
398
639
525
474
354
740
539
577
353
329
788
293
377
455
646
450
515
423
747
550
598
284
699
734
427
657
335
739
381
552
401
717
414
608
341
522
770
648
417
515
496
483
665
240
697
402
878
208
476
547
477
364
483
548
584
513
395
686
494
642
394
507
670
479
458
584
605
499
387
699
550
463
677
108
700
507
555
393
459
798
359
703
482
519
461
565
489
320
646
519
528
1023
479
507
586
400
568
556
418
331
1023
508
478
542
472
542
379
328
738
498
824
475
423
532
655
420
493
749
650
821
675
429
526
699
407
293
581
695
338
732
382
768
447
315
443
732
470
529
608
174
1023
432
438
568
538
452
419
491
638
872
520
334
589
508
383
629
491
614
546
493
464
551
698
447
491
440
692
561
407
512
631
616
455
508
542
740
359
408
741
502
523
489
558
624
676
531
633
498
809
258
388
637
513
452
541
406
642
459
502
302
890
487
464
465
573
569
424
453
411
910
428
557
527
723
419
507
287
719
587
394
616
366
700
519
477
413
630
496
469
395
585
574
513
452
471
698
592
443
638
507
880
478
272
545
649
435
572
420
780
499
387
515
629
710
481
463
580
571
320
399
456
573
607
643
592
603
528
305
571
526
515
427
748
483
604
516
479
421
625
546
472
459
503
646
529
445
494
599
494
481
430
778
481
550
501
480
647
462
384
577
642
481
634
390
682
512
462
331
599
536
501
332
733
561
492
477
393
625
534
388
499
592
611
381
447
492
616
516
410
469
698
688
409
486
661
503
540
295
469
713
539
458
330
785
310
640
341
642
633
470
314
455
745
490
487
363
639
514
404
492
725
546
597
234
331
877
401
754
488
630
650
394
365
514
616
326
471
494
621
415
510
158
767
583
477
436
630
585
432
278
314
1023
419
450
661
626
582
330
299
542
417
617
336
588
761
435
558
364
591
497
486
408
668
759
443
395
696
639
424
549
437
507
489
347
423
661
595
577
349
469
622
630
487
528
637
552
463
311
584
437
670
447
596
626
630
362
508
631
568
504
378
689
645
456
378
489
515
721
552
438
517
585
462
382
671
485
511
439
497
685
399
497
514
582
479
476
422
423
1023
314
448
552
622
608
339
525
534
543
556
457
637
534
497
366
564
686
514
487
559
536
604
313
534
566
514
475
562
503
638
440
545
28
881
210
514
470
633
471
363
342
502
738
435
542
389
571
425
670
596
518
419
354
376
640
613
684
457
448
822
354
465
512
651
568
394
352
496
788
219
527
124
726
563
136
752
489
451
395
590
361
446
730
529
307
623
685
449
419
653
488
532
247
854
538
391
701
299
724
495
595
502
588
528
405
497
521
562
645
418
459
548
698
387
391
665
679
540
451
581
550
570
416
607
579
563
440
323
656
452
469
410
602
470
456
602
587
607
549
644
281
637
425
486
439
664
553
400
604
323
619
482
470
470
665
468
476
415
568
611
498
540
460
542
590
544
405
624
443
532
297
607
578
517
456
563
581
569
386
478
721
554
531
347
640
460
517
383
493
574
490
297
616
535
494
799
324
559
683
627
229
602
535
522
677
365
592
539
422
351
566
605
532
510
465
585
561
502
453
760
469
572
258
538
556
464
589
583
682
436
479
317
692
538
566
260
789
496
452
525
488
894
475
272
538
699
672
479
458
609
575
397
592
237
887
454
454
483
575
477
452
432
650
487
811
272
662
661
463
567
457
552
521
675
313
726
609
424
481
431
617
488
556
356
696
711
415
477
568
583
460
407
752
675
439
635
449
578
423
510
475
581
562
502
419
473
730
487
487
402
707
537
419
519
549
417
631
296
596
652
461
492
415
614
496
654
291
686
515
736
373
497
518
665
435
515
697
482
508
183
624
633
488
479
495
697
518
388
425
691
428
371
454
661
465
451
475
451
666
646
528
507
643
553
493
405
692
480
351
621
438
716
469
463
428
680
454
439
430
623
576
461
416
478
674
483
459
461
645
437
468
436
436
