CH1
574
307
426
632
686
338
359
488
720
449
325
499
733
536
306
425
658
670
343
359
514
699
445
337
515
750
522
305
441
681
655
333
369
535
687
444
340
515
745
506
306
441
685
650
343
377
526
702
428
331
518
741
503
284
447
685
639
357
394
545
725
368
346
520
744
479
301
461
686
633
360
403
562
743
356
356
531
735
465
297
479
686
623
356
411
547
760
345
363
532
736
462
292
478
689
630
353
399
535
770
336
362
547
730
449
313
493
717
613
333
424
560
744
331
366
543
728
438
316
494
721
597
318
429
583
717
326
375
537
717
442
323
491
737
595
312
418
595
702
329
364
518
727
454
313
493
741
573
320
416
619
683
338
358
489
701
447
325
504
740
551
306
433
640
680
329
349
494
704
456
322
499
732
537
308
429
665
671
340
358
500
706
459
326
507
742
524
304
433
680
660
323
384
533
732
432
331
508
749
508
295
436
685
650
347
377
543
714
378
338
515
738
493
294
449
681
647
363
397
555
747
361
349
519
745
492
303
457
685
637
353
389
556
751
360
375
530
733
457
303
471
696
634
344
425
534
777
341
345
531
744
455
303
484
706
634
318
398
551
739
347
349
566
738
440
287
479
742
636
322
418
563
734
304
392
525
718
447
312
472
746
616
294
446
578
712
333
364
522
724
458
294
482
747
571
340
392
630
757
348
350
485
717
453
297
488
762
575
304
421
622
674
344
334
479
716
456
317
488
737
534
301
478
659
679
336
343
488
685
455
336
498
751
527
303
419
674
666
350
358
510
700
446
319
502
747
534
305
450
683
625
326
393
530
703
417
317
514
769
491
292
437
682
647
364
407
539
729
410
340
510
743
479
297
456
673
647
369
400
544
748
353
347
519
754
465
292
467
686
640
358
420
527
782
351
353
526
740
462
308
483
698
604
336
408
534
768
351
361
534
732
469
302
478
724
625
326
448
555
747
336
360
523
729
449
308
492
741
614
331
420
573
709
323
359
520
735
456
313
487
741
592
309
417
592
713
335
352
495
722
459
309
489
735
587
311
398
628
684
334
346
480
714
461
310
497
743
554
305
420
648
687
346
338
479
707
470
317
496
745
543
297
428
670
661
342
363
504
707
454
328
506
745
519
306
436
684
642
336
371
525
712
414
328
514
743
503
295
453
685
652
356
387
536
731
385
337
509
750
495
294
456
683
632
369
371
537
757
356
344
514
749
480
293
459
685
647
361
415
524
784
358
347
519
744
466
298
474
685
612
358
408
527
773
351
358
531
735
459
299
478
721
655
332
420
540
751
340
349
539
740
451
307
480
747
626
323
409
578
728
321
350
528
737
453
307
478
745
600
304
419
594
736
343
353
508
731
453
304
494
747
596
314
420
615
698
340
349
481
721
450
340
493
742
538
305
420
633
684
338
352
483
709
465
317
491
756
542
305
445
662
672
341
356
495
714
465
325
497
748
529
299
433
674
659
365
365
518
700
425
335
512
760
512
295
427
679
653
357
379
530
718
386
333
505
751
473
328
443
681
661
348
390
528
737
405
338
529
754
460
278
488
679
696
371
389
556
774
337
325
552
725
457
256
607
721
591
394
390
549
740
323
331
539
770
450
307
473
658
656
359
380
518
809
376
341
548
717
472
321
410
767
614
342
395
609
793
317
324
507
685
459
330
538
743
497
406
287
586
684
406
246
590
686
434
351
390
618
634
214
338
608
771
246
339
595
507
547
399
550
766
484
242
465
667
552
530
268
307
866
591
32
702
578
619
303
104
495
702
308
469
549
749
816
361
607
668
592
165
750
501
729
425
457
487
386
567
0
619
534
720
259
300
995
654
321
533
487
586
542
0
526
563
495
252
595
1023
751
285
493
289
1023
348
71
604
741
556
72
684
511
761
496
311
0
1023
157
160
212
812
285
225
359
821
617
63
664
575
849
289
367
619
648
254
390
518
290
676
287
489
488
1023
335
117
573
723
450
98
645
674
622
502
782
308
949
221
672
596
1023
319
25
357
890
509
79
357
981
535
0
702
527
1023
419
145
621
1023
707
378
180
704
605
0
0
590
697
553
437
208
640
442
367
419
730
661
82
574
438
836
436
570
176
905
617
243
389
898
387
791
589
744
1023
478
264
182
1023
354
338
268
525
783
186
253
672
767
783
0
740
806
534
341
224
764
625
541
664
502
583
232
497
562
913
508
223
334
568
715
261
477
369
737
889
89
377
748
685
286
345
614
815
232
301
505
934
626
167
427
1023
727
0
401
640
433
452
405
510
733
602
48
602
907
126
140
614
966
556
99
777
472
595
430
286
187
843
244
0
471
865
429
612
346
480
827
58
271
483
753
744
428
490
563
424
315
427
431
802
173
478
363
664
638
122
481
1023
678
410
643
617
1023
196
253
545
637
419
431
548
638
523
228
533
887
709
576
387
414
785
452
122
625
685
619
293
270
492
851
572
257
407
805
415
128
488
765
405
112
472
621
675
373
371
340
364
242
775
407
913
482
380
338
644
1022
498
291
601
642
328
445
302
1001
427
355
490
816
961
388
97
449
665
491
0
361
739
422
395
363
552
682
490
497
577
616
26
269
385
959
646
168
429
232
388
333
565
502
632
375
63
909
920
563
86
568
788
539
72
682
539
846
313
369
513
643
405
333
500
626
767
815
358
523
605
187
325
278
682
531
254
227
1023
762
262
445
270
797
234
644
218
741
579
285
323
665
670
241
666
261
858
253
426
341
256
828
62
568
589
703
429
354
637
499
409
645
480
807
471
606
527
720
437
532
687
544
372
228
600
533
726
608
372
472
631
765
217
350
562
602
715
231
564
479
497
0
608
698
557
641
296
818
701
206
498
388
872
409
327
388
786
548
402
404
479
864
234
366
643
646
516
400
635
993
549
226
364
513
851
602
287
471
568
584
436
337
1023
608
400
237
971
598
354
249
588
637
497
771
226
638
504
178
623
559
621
174
380
629
841
759
56
441
702
502
427
56
784
583
98
760
307
780
489
155
525
888
738
145
571
753
539
153
569
514
686
305
788
442
564
446
0
785
686
573
62
350
405
776
486
545
293
415
1023
146
600
625
819
458
283
385
422
160
319
607
318
518
117
488
573
771
95
637
207
1023
138
171
347
1023
0
498
269
1023
661
119
567
519
833
156
513
728
734
369
99
192
1023
389
311
507
554
531
241
482
967
721
417
173
683
768
670
434
166
650
1023
117
747
579
623
358
247
691
599
375
420
346
627
1023
659
311
646
677
394
179
286
641
477
388
444
585
779
204
338
317
863
454
0
597
786
662
214
427
822
786
391
460
601
651
833
221
534
680
461
838
282
520
824
407
228
379
880
378
351
491
784
439
379
432
795
579
280
546
569
329
738
298
383
728
509
102
990
632
493
581
637
472
643
193
418
983
757
445
252
521
809
882
290
332
375
774
184
488
814
622
448
144
686
703
561
648
474
611
1023
275
286
372
624
425
485
674
543
638
591
196
816
705
297
533
650
944
306
362
285
499
642
421
294
336
451
457
236
364
957
230
396
391
538
1013
265
468
499
814
269
95
492
685
407
542
708
1023
676
392
238
525
608
462
376
498
709
583
413
355
665
398
511
7
805
756
366
248
994
676
519
278
344
481
783
322
300
577
637
507
482
496
669
538
157
938
588
571
449
440
481
523
487
421
560
684
787
278
142
1023
628
220
447
532
763
676
210
589
850
455
243
464
685
567
291
380
796
519
335
248
753
746
583
270
405
894
715
306
349
600
793
559
356
399
659
431
295
552
571
754
263
317
858
596
55
595
464
653
343
325
606
614
456
239
370
586
604
458
339
475
636
352
268
469
860
449
479
181
984
505
391
547
706
655
259
403
302
651
550
188
467
1023
457
824
130
690
714
148
720
326
873
275
385
453
1023
775
284
235
1023
770
331
152
975
829
373
341
446
611
187
801
374
414
717
157
373
414
338
589
246
567
615
438
499
200
403
936
672
350
523
786
300
308
607
567
665
391
412
648
719
415
365
335
830
237
505
346
884
564
289
609
438
564
525
406
529
777
568
114
544
756
635
346
82
824
823
506
279
550
544
191
262
369
640
395
671
347
766
671
115
646
532
650
524
427
430
764
440
364
727
620
463
873
384
426
669
534
309
472
717
408
418
366
734
562
160
231
595
369
844
367
375
770
546
201
469
530
627
414
302
597
689
88
796
685
405
241
481
771
662
729
388
219
670
684
351
46
515
857
487
121
441
810
1023
477
344
476
644
71
322
564
916
529
77
532
554
746
340
203
311
844
318
32
845
712
488
118
525
480
759
362
448
410
784
283
257
537
1023
366
416
823
831
506
229
390
805
903
351
370
516
526
294
266
552
623
804
262
296
600
779
201
451
557
816
483
249
836
750
537
297
544
580
891
273
439
507
718
510
198
461
799
382
529
362
399
685
448
449
421
551
527
245
626
608
487
89
469
521
769
0
525
387
866
483
89
596
857
539
401
322
572
624
663
432
633
489
432
659
189
314
712
338
265
481
902
0
460
281
666
105
405
509
591
614
430
84
858
781
254
359
289
913
796
158
485
705
371
242
276
577
719
126
409
119
681
497
558
404
819
346
398
596
683
578
286
350
48
964
406
204
507
661
270
433
193
684
855
317
343
479
607
690
330
430
684
687
481
151
581
632
368
369
527
577
99
465
347
725
606
280
418
760
480
344
356
566
682
497
347
539
724
368
552
545
617
659
353
530
489
917
126
446
801
641
458
187
538
674
586
378
527
744
728
400
173
667
731
417
250
706
639
520
295
315
868
807
0
626
629
818
543
243
213
685
431
722
405
503
549
289
301
437
764
367
472
436
605
642
274
487
606
1023
283
201
505
640
425
241
503
697
599
580
471
570
840
318
351
583
678
499
61
450
827
578
425
300
517
798
227
387
436
1023
359
208
448
560
717
361
194
517
724
174
537
490
733
299
450
335
807
544
298
431
482
741
385
514
508
747
565
50
389
531
741
461
478
471
625
267
274
843
618
627
351
392
645
638
376
574
702
637
419
187
478
684
442
235
624
747
498
265
467
560
570
456
387
338
553
559
275
443
637
684
342
378
599
696
493
327
476
741
424
243
498
862
542
411
587
611
711
506
319
409
868
352
419
478
630
637
243
276
690
825
245
547
484
615
543
360
373
851
534
146
686
724
576
314
361
437
778
442
204
484
783
322
362
348
763
607
239
425
493
686
387
174
690
612
376
339
545
493
686
722
504
483
1023
341
269
612
632
529
309
198
813
507
442
444
613
795
342
357
613
627
727
329
491
525
940
475
464
454
685
763
357
895
846
250
467
1023
503
687
439
370
559
901
275
295
640
831
31
687
344
780
630
424
367
436
648
498
688
791
968
442
442
670
630
551
293
267
857
949
239
326
530
1013
407
125
480
750
655
349
0
974
798
215
464
619
816
396
117
777
762
434
345
350
684
734
390
601
521
725
338
536
587
562
614
299
175
510
567
365
693
455
574
628
0
670
677
447
475
326
612
560
390
143
672
676
286
119
912
692
453
450
291
572
673
502
467
668
949
401
383
223
726
466
724
342
474
791
360
305
504
564
644
398
678
747
537
97
823
524
646
425
399
527
776
279
307
559
538
545
473
442
686
264
738
286
459
553
522
380
390
1019
530
251
450
853
518
458
349
488
716
528
588
468
748
398
389
629
478
738
347
306
557
621
413
572
462
767
474
262
394
560
705
629
636
513
529
360
299
370
972
367
444
424
458
462
491
434
560
759
242
546
497
689
524
219
541
665
755
361
384
570
1023
261
479
557
723
610
361
361
686
685
232
451
464
827
346
388
497
645
463
272
571
613
694
318
390
398
762
239
448
263
727
493
275
437
829
611
348
284
850
746
256
410
582
580
466
264
475
727
620
316
365
569
610
604
362
442
711
387
307
537
755
441
377
315
533
692
189
381
649
668
467
232
426
681
409
509
330
385
719
339
342
481
732
364
302
412
577
725
272
510
501
756
322
547
365
641
583
139
481
733
538
519
245
658
803
0
799
0
1023
331
734
425
613
773
253
312
567
561
404
340
450
577
343
315
511
702
895
434
455
681
499
533
203
373
876
444
213
549
692
423
414
519
685
607
355
393
476
659
507
374
388
831
546
33
378
563
626
385
352
502
379
608
243
626
527
684
266
347
668
707
347
264
597
653
525
349
453
949
532
341
395
724
724
384
293
533
833
235
292
675
868
513
233
933
710
521
301
567
486
995
365
194
402
1023
643
69
528
604
683
125
382
582
557
442
236
536
928
329
92
622
672
637
382
501
517
637
372
418
726
732
433
85
424
566
538
533
313
536
690
406
318
497
685
530
341
344
789
752
309
554
535
751
221
301
537
772
432
220
403
1023
710
307
365
584
810
250
311
684
754
409
136
562
704
495
373
542
491
754
268
363
423
748
500
414
263
1023
538
228
385
542
1023
283
266
0
1023
493
230
590
584
552
292
460
190
921
481
468
488
948
366
239
612
624
859
289
474
794
640
271
298
369
754
488
252
452
735
579
92
354
752
482
228
387
482
633
402
378
386
922
540
353
412
621
596
309
258
667
660
558
318
497
745
513
69
568
487
500
399
336
386
753
443
521
482
630
688
323
352
810
732
515
171
594
709
442
383
329
846
656
74
463
667
649
365
327
470
683
383
375
452
764
552
267
411
1007
580
349
337
490
713
483
297
393
978
589
158
464
655
626
320
243
538
634
548
487
541
685
484
280
468
1023
669
278
394
190
1023
370
227
489
989
546
237
586
686
686
233
476
273
1017
340
327
496
488
541
217
320
689
907
192
548
633
489
590
471
635
777
494
288
304
673
576
188
525
368
941
433
183
475
686
441
274
643
735
506
304
200
687
764
458
355
562
830
369
79
649
766
556
491
300
610
715
378
277
460
695
438
273
684
667
508
445
316
603
735
248
395
507
662
445
235
359
738
721
437
315
320
820
305
270
503
795
268
433
481
685
643
379
184
1002
752
354
353
512
567
423
365
378
859
596
312
387
555
690
298
498
509
673
341
379
371
668
662
214
400
689
619
365
144
328
624
347
407
358
812
523
248
476
347
610
109
550
388
664
464
422
348
822
610
100
439
640
661
504
165
886
696
452
274
916
448
557
204
670
687
970
353
8
277
1023
435
288
343
791
460
373
403
563
663
435
212
731
821
515
212
573
579
496
242
498
582
734
180
344
400
992
467
301
493
743
467
309
381
653
586
326
377
408
682
394
293
543
854
385
318
188
847
609
368
314
620
701
531
315
490
718
423
161
728
566
719
382
367
485
746
420
382
473
828
555
341
388
563
685
271
347
483
735
418
377
572
739
443
240
650
670
824
345
275
527
753
234
556
486
747
519
402
486
432
1023
262
686
481
689
472
354
479
741
471
358
472
626
707
389
393
549
718
370
344
615
629
339
299
577
729
562
537
296
586
740
430
244
681
592
518
160
618
776
617
316
429
426
803
264
253
548
785
383
390
579
781
687
310
426
390
1023
334
244
433
873
426
416
392
597
756
231
326
643
645
463
352
499
686
503
279
444
773
532
527
328
545
701
434
314
295
992
493
272
570
689
673
304
384
536
717
413
460
496
664
316
413
575
628
556
314
353
633
562
572
329
439
780
470
175
534
685
443
352
216
938
780
325
301
584
676
633
486
434
661
631
364
360
599
658
470
288
602
703
464
229
630
721
603
224
680
572
752
335
209
483
631
521
188
478
674
584
329
118
762
735
272
415
501
628
487
300
414
661
598
474
239
686
939
336
264
398
801
414
362
458
761
386
431
356
440
834
127
336
481
586
614
180
679
697
345
370
337
786
567
470
309
443
661
471
261
524
767
489
210
283
743
564
552
520
397
832
448
171
532
731
486
252
726
657
639
140
595
642
744
400
257
550
685
369
325
594
582
772
178
383
578
594
398
157
657
678
572
312
450
669
581
381
401
544
764
367
244
485
672
501
280
541
644
836
319
502
541
652
384
342
390
892
544
227
594
611
686
264
486
468
806
309
207
499
683
594
259
576
621
742
212
484
529
743
317
224
718
593
531
194
495
739
767
232
492
503
684
300
364
470
737
421
411
458
575
662
359
119
825
827
212
156
685
738
545
292
469
741
474
281
283
636
653
555
285
678
727
575
369
442
730
777
430
383
640
683
250
196
447
783
578
260
432
685
561
305
337
558
770
361
232
612
787
379
155
524
758
612
303
335
659
448
368
501
489
657
338
421
420
706
590
88
628
592
561
222
603
430
643
507
559
463
686
388
467
266
755
677
215
341
399
763
270
426
460
903
436
455
427
737
802
297
359
388
601
421
306
486
670
523
308
508
412
949
426
210
596
675
496
311
603
627
501
474
544
641
596
431
275
390
800
364
385
583
645
471
573
259
668
329
555
383
508
586
578
251
537
696
525
386
460
449
930
330
529
562
817
330
411
409
872
426
307
359
818
640
302
350
687
685
150
612
482
753
494
259
546
653
634
318
460
614
805
190
246
637
819
617
275
417
659
647
359
305
724
631
564
350
471
724
484
99
421
571
678
353
584
336
977
350
403
518
765
518
262
502
668
645
379
414
498
685
296
354
627
766
459
324
444
763
444
432
377
429
1008
290
318
555
659
475
320
404
724
546
330
440
462
842
221
407
738
686
522
258
486
933
637
366
392
611
686
278
121
690
675
376
367
415
723
564
389
349
560
924
324
412
563
741
433
362
445
719
640
429
393
529
729
346
369
717
677
453
301
503
561
838
367
464
532
853
440
380
321
875
499
293
258
978
581
263
416
642
774
301
373
481
825
401
329
271
1000
617
244
458
557
749
265
475
362
813
352
315
560
679
687
376
307
610
716
362
240
734
706
386
386
312
857
612
248
451
651
725
340
279
577
806
389
350
487
686
669
236
428
603
789
209
365
384
975
381
235
632
778
668
239
330
607
624
129
666
500
718
426
253
548
771
602
297
561
682
671
236
386
636
620
465
404
419
938
488
345
464
684
753
359
359
392
799
333
235
742
764
454
343
496
575
663
310
498
495
575
591
145
476
730
489
315
401
640
724
324
428
515
808
370
440
476
622
599
415
380
687
620
198
480
467
748
298
217
595
706
469
299
489
480
750
393
317
525
343
664
331
432
978
438
400
318
709
532
316
567
582
864
370
351
504
793
381
417
498
641
763
326
378
514
753
123
507
536
878
620
447
296
788
628
182
441
469
673
590
378
454
907
356
351
486
613
520
500
443
474
862
159
553
533
772
445
291
475
510
787
509
309
679
651
384
238
539
723
453
381
613
587
654
437
376
597
647
283
331
431
686
445
237
648
866
588
261
357
911
636
245
607
596
701
532
201
649
779
498
459
459
533
644
420
86
943
675
376
262
533
621
555
238
432
719
749
353
456
502
685
318
524
317
829
550
193
495
433
709
308
293
447
686
592
272
355
869
445
280
300
531
727
460
289
392
721
428
283
582
667
580
334
310
666
578
342
571
377
749
402
204
460
747
299
197
550
687
592
391
0
882
682
500
279
525
866
307
488
429
613
695
475
238
458
602
603
267
502
738
628
137
499
616
654
424
671
424
665
297
543
556
729
453
245
304
810
651
274
484
410
770
239
518
552
686
345
611
404
642
685
229
615
470
776
261
446
582
729
396
280
411
778
724
211
399
539
646
536
323
386
792
492
137
816
690
630
404
422
547
685
357
303
464
879
161
526
665
589
929
347
419
479
578
481
423
686
966
434
269
372
687
473
583
493
606
817
254
394
535
486
652
324
495
683
643
192
403
507
653
339
307
521
606
387
431
510
640
590
508
339
470
794
279
392
678
739
313
185
775
863
504
347
389
393
648
285
179
556
751
531
322
501
706
618
276
459
580
599
390
394
508
705
337
295
414
672
667
315
425
457
703
371
347
528
689
566
255
462
733
648
272
474
578
739
322
361
531
678
113
468
406
728
532
419
430
549
686
330
248
510
806
419
325
516
685
594
234
445
597
675
246
470
487
677
466
342
447
731
580
257
384
553
585
291
257
486
756
403
297
502
857
497
409
481
627
760
196
319
544
660
498
263
382
734
577
240
553
475
728
460
364
407
843
424
316
450
847
552
255
356
791
447
385
306
480
606
425
247
539
637
528
234
783
608
599
332
382
439
608
397
145
609
712
583
192
405
709
604
324
479
452
706
355
218
667
762
503
250
470
653
655
279
374
497
800
315
279
474
742
464
284
624
674
576
298
446
533
687
353
333
414
809
465
268
496
538
769
372
398
515
686
441
317
528
765
583
402
497
611
581
322
451
259
1012
293
429
525
597
599
263
457
663
672
278
435
522
776
349
392
494
676
396
360
494
675
497
608
356
503
684
435
330
616
615
561
258
453
686
752
456
423
481
873
343
356
555
759
364
523
442
784
682
390
498
499
673
268
502
748
654
189
659
668
327
595
416
573
529
586
600
416
366
601
667
191
752
689
527
334
415
565
690
325
296
523
873
427
220
583
634
528
163
403
648
684
1
662
393
634
592
327
424
688
585
289
363
581
455
449
323
670
725
413
270
493
951
773
264
584
610
661
283
495
367
594
517
227
633
705
539
296
395
505
650
299
459
452
782
411
202
686
718
543
350
464
567
737
94
491
535
685
340
340
581
501
525
374
429
574
757
322
196
412
786
307
426
481
744
505
310
105
925
638
367
255
389
707
462
281
604
801
535
285
398
793
637
240
343
501
718
353
327
404
611
501
354
437
680
448
445
131
836
742
353
413
497
662
582
41
448
835
619
244
278
527
839
375
318
614
561
534
188
639
542
943
403
324
601
686
441
331
744
679
366
351
394
788
574
344
188
590
701
232
427
547
803
486
325
756
684
632
456
544
512
882
233
400
347
792
411
285
361
816
647
245
465
318
920
358
377
477
683
348
318
281
849
581
347
496
663
862
351
358
546
523
865
273
326
883
611
210
390
387
816
364
307
488
616
498
270
345
762
696
246
181
893
683
253
307
609
843
596
208
474
667
776
211
333
695
762
186
120
270
799
455
395
592
838
597
411
402
658
555
179
323
426
645
327
100
853
593
612
299
444
552
691
150
360
849
767
433
213
585
686
537
175
421
776
713
304
343
485
657
337
493
463
691
650
208
440
576
906
507
319
531
567
535
212
391
867
673
311
489
648
655
94
568
508
702
428
348
465
639
464
397
457
642
515
510
227
555
755
426
205
625
722
618
198
686
701
530
515
530
605
641
511
263
574
813
356
603
492
666
664
509
292
910
685
249
531
483
788
323
0
1023
661
482
542
295
557
602
383
270
716
726
305
449
428
563
704
450
389
509
802
467
383
549
682
385
687
397
555
642
250
339
583
766
330
402
429
763
188
481
765
652
684
307
461
683
677
340
314
626
660
521
321
411
627
684
325
404
660
766
414
409
449
734
493
372
330
906
765
297
479
577
676
361
367
520
601
696
194
468
765
652
196
438
599
728
217
559
480
709
494
369
379
728
601
329
394
609
687
336
317
477
876
428
284
481
554
659
91
441
408
822
271
475
456
584
552
188
295
822
507
358
340
589
657
286
366
397
678
381
345
487
770
572
300
394
722
659
606
223
495
791
528
664
466
735
459
474
399
588
611
431
312
561
587
522
293
395
908
443
339
396
618
660
440
370
452
713
504
298
448
837
534
305
346
816
557
303
420
573
681
315
231
593
704
536
300
313
710
640
292
434
539
723
350
243
473
870
525
384
580
485
602
537
305
497
683
497
366
521
676
435
291
466
537
687
314
365
647
719
408
338
494
649
308
327
588
640
653
352
367
486
724
441
356
426
869
496
318
452
648
640
493
402
626
683
505
351
484
486
544
138
445
863
636
301
345
234
1023
350
371
640
835
271
229
404
762
851
424
334
433
688
442
290
446
795
404
303
363
644
645
96
687
464
782
343
711
476
761
339
387
543
644
597
340
107
571
693
388
170
613
604
476
248
431
776
686
180
506
561
740
362
323
577
725
376
246
609
709
605
194
477
603
686
322
266
570
650
448
278
493
803
512
342
449
760
594
491
304
457
714
492
255
517
659
462
411
410
549
753
266
390
406
712
461
309
478
694
641
311
422
503
815
329
318
400
757
520
529
527
531
727
452
367
631
786
597
282
425
750
384
264
397
740
499
261
348
739
485
270
519
499
792
249
288
447
576
807
303
664
667
502
735
431
472
745
376
343
475
685
511
181
336
744
640
178
442
571
666
401
169
578
588
540
207
545
733
630
411
304
581
599
402
408
484
604
480
448
447
685
494
478
449
248
1023
458
312
486
782
429
253
421
861
775
221
694
488
760
357
277
262
1023
458
227
581
778
606
471
295
948
759
279
301
630
824
457
369
494
542
626
145
164
738
744
313
284
384
669
344
684
490
635
683
630
281
413
685
400
242
702
777
526
171
540
732
465
116
541
662
666
261
295
466
651
548
540
332
803
546
240
495
362
659
321
229
450
989
474
232
360
818
412
411
325
699
702
376
154
583
667
482
122
414
887
496
310
211
504
738
542
389
479
653
474
82
794
750
554
217
587
585
880
180
516
277
579
600
214
206
741
658
369
362
592
741
139
510
421
713
456
317
416
781
392
307
789
930
681
212
413
445
732
335
345
434
792
540
262
382
763
686
381
294
539
779
405
383
550
748
437
381
391
687
776
345
447
384
659
452
202
451
820
574
222
568
641
638
307
364
531
674
373
431
380
826
393
476
463
582
652
333
289
590
758
301
413
344
726
637
322
447
634
624
434
330
429
869
280
353
498
716
338
560
480
685
558
453
388
516
647
641
372
494
834
383
569
456
650
623
266
480
504
740
437
95
642
683
502
213
471
722
563
196
505
430
683
465
264
485
767
416
377
261
851
555
382
690
580
747
346
351
590
685
380
458
429
765
733
195
319
661
551
436
336
366
747
438
269
404
943
567
413
429
558
680
549
312
371
682
301
238
498
812
465
130
343
689
528
249
402
503
679
228
728
440
830
618
467
355
582
692
305
318
489
871
402
339
572
779
474
225
481
622
863
186
485
575
648
663
91
788
650
600
340
408
686
531
356
383
535
680
455
174
639
606
711
239
315
594
978
424
118
838
524
399
260
515
667
506
314
461
685
739
336
394
620
744
402
248
571
682
507
345
202
853
599
319
280
620
628
284
300
484
881
412
294
437
770
732
208
737
380
934
346
344
465
945
317
432
478
683
482
539
393
432
881
337
376
502
700
401
310
540
570
638
370
312
623
768
317
443
518
586
570
426
550
686
652
281
388
396
893
365
240
453
837
328
373
371
780
627
241
337
601
545
249
375
476
846
475
355
453
782
474
281
420
577
661
405
455
380
610
566
142
730
779
480
308
441
501
634
475
291
538
622
364
342
472
684
318
530
405
531
709
157
705
549
680
466
312
459
788
573
258
272
769
781
429
243
443
639
589
339
465
744
380
312
468
640
632
210
561
377
708
549
462
577
683
589
252
375
607
758
356
368
549
760
414
300
400
786
501
220
457
679
565
406
400
357
609
440
346
501
702
514
220
424
635
641
262
380
515
722
456
317
472
687
583
241
556
656
688
284
574
520
755
438
304
405
881
340
246
668
673
458
684
436
533
714
472
348
463
731
446
289
497
759
748
309
390
649
763
301
363
470
816
437
225
530
582
816
266
228
915
747
425
235
662
720
425
269
485
609
728
248
603
527
810
356
457
386
834
334
411
413
655
789
270
371
608
705
602
321
437
825
357
391
394
723
600
319
497
632
637
211
471
414
706
407
500
644
720
472
621
647
402
634
409
525
368
722
489
325
384
687
747
285
428
565
720
340
271
489
804
450
313
449
591
637
501
132
700
790
356
360
605
626
533
231
737
643
490
374
393
637
647
342
261
553
720
513
96
856
764
479
266
519
318
855
61
591
469
949
430
292
397
975
511
335
347
682
693
290
274
405
639
496
401
510
707
574
262
457
627
803
268
457
476
748
362
405
399
818
481
301
460
594
723
276
385
687
685
349
346
436
723
328
560
326
807
516
437
338
534
716
264
410
510
721
511
325
453
586
721
573
410
558
730
327
447
463
726
543
266
552
789
677
292
396
380
906
69
312
576
829
541
356
255
1023
243
332
661
516
825
264
283
591
686
288
378
453
757
598
434
426
491
751
329
269
658
685
618
148
739
776
592
354
267
654
676
251
275
528
807
488
188
538
693
567
292
393
288
1023
251
472
428
721
445
410
467
657
693
19
364
657
687
406
307
525
684
422
270
573
754
542
391
277
723
727
527
282
418
756
412
355
399
842
480
406
377
672
612
246
411
579
699
455
308
478
759
574
313
417
559
781
468
433
450
722
462
257
647
763
502
361
373
649
789
350
310
534
787
490
253
582
797
507
412
337
651
624
329
443
426
653
428
565
475
693
528
265
384
680
634
330
191
595
600
346
318
257
951
596
212
187
717
574
251
454
625
754
582
427
366
856
336
384
423
647
686
386
346
523
611
463
255
645
729
504
315
599
669
665
283
396
400
765
491
317
505
793
482
246
487
571
773
383
340
547
781
364
444
364
974
339
300
620
685
593
422
225
451
774
476
343
464
798
403
231
535
760
606
496
349
490
709
177
674
439
555
492
443
640
681
603
84
649
503
697
196
411
182
1023
513
243
221
890
475
260
511
151
944
227
397
167
1023
539
457
390
745
770
228
646
466
744
834
292
559
433
900
362
374
802
468
542
393
599
677
391
319
401
871
282
376
537
631
563
292
285
674
566
414
434
374
695
420
222
537
685
506
433
397
538
785
322
385
473
628
526
366
471
676
588
326
265
872
625
369
310
466
685
433
309
448
837
640
229
428
591
724
343
348
500
810
451
267
629
764
338
403
511
675
587
394
309
592
664
312
369
539
682
588
270
433
673
675
353
303
516
728
512
365
477
676
495
313
448
564
644
418
294
524
751
466
567
456
604
482
203
836
728
605
253
430
646
751
403
402
525
709
500
221
549
617
638
342
439
449
881
227
390
530
746
409
207
706
681
638
350
329
597
777
299
451
547
584
786
434
387
759
657
417
332
614
755
289
381
495
699
320
341
541
747
577
280
315
683
726
431
523
507
738
295
616
506
738
615
314
264
493
704
296
252
465
677
568
459
463
655
739
275
217
915
738
289
675
351
667
585
224
471
685
498
342
477
707
638
381
337
514
668
399
295
525
770
507
148
647
437
948
423
300
545
567
256
630
285
963
642
310
316
585
775
346
333
363
748
416
338
453
736
542
324
489
658
675
278
430
608
523
479
281
198
953
464
220
559
645
661
353
317
508
738
326
373
519
669
571
177
507
683
788
387
329
590
687
383
381
592
782
506
251
536
546
729
312
348
576
665
508
294
605
680
621
389
489
658
543
525
615
535
869
429
330
479
707
422
362
497
650
573
444
382
557
763
158
556
328
773
467
208
569
687
607
443
306
509
828
210
338
543
622
609
334
477
794
454
342
538
455
797
280
401
470
809
413
244
647
558
735
268
397
510
687
244
581
506
638
483
362
537
742
590
292
423
511
721
435
494
609
590
682
439
347
982
432
360
416
595
773
269
316
504
729
434
314
500
731
543
468
475
538
684
517
414
515
682
405
292
557
867
542
329
437
686
706
147
361
467
634
322
452
548
755
629
477
426
568
650
324
443
535
700
506
329
496
849
564
269
432
564
881
357
374
431
729
441
270
494
604
571
454
446
677
556
417
306
557
687
384
333
904
614
451
473
365
589
678
292
419
445
738
456
333
459
613
595
412
308
789
571
296
412
620
636
451
423
384
805
453
321
448
621
440
573
404
388
790
242
533
504
725
526
303
447
599
665
341
457
479
793
296
458
516
675
504
189
528
659
636
262
545
514
738
233
429
500
770
461
294
499
564
687
214
350
584
896
310
332
570
681
411
312
506
707
557
482
342
601
684
442
374
464
769
288
507
453
706
675
281
372
574
741
277
357
502
708
383
378
667
855
477
131
552
673
677
388
333
524
824
390
238
397
944
482
303
349
765
677
314
425
417
653
409
405
473
600
591
562
434
624
674
413
119
573
660
350
418
534
730
531
180
532
669
691
394
337
428
904
308
403
496
564
862
271
458
632
623
452
304
454
687
416
372
335
758
662
242
604
749
616
291
187
535
728
403
507
340
684
353
279
452
785
684
449
329
309
847
154
492
422
713
382
304
488
649
618
187
450
487
687
332
450
328
1023
432
126
620
585
668
551
255
467
903
277
327
284
663
373
467
464
835
648
297
416
550
790
56
427
442
835
413
388
309
778
557
340
448
499
572
547
320
526
689
418
246
371
758
618
253
302
500
774
374
392
544
638
455
266
608
737
677
254
406
532
847
498
336
572
704
390
374
490
670
587
365
490
540
684
321
454
486
704
396
288
520
631
637
225
623
678
664
332
228
725
545
453
300
518
684
715
277
356
605
629
363
310
362
979
527
279
536
878
597
174
114
792
597
374
504
529
680
429
412
286
824
559
225
377
641
847
243
165
549
549
222
411
454
486
523
312
53
842
789
278
412
556
655
331
452
385
650
768
301
308
770
659
300
447
643
686
163
398
359
1023
522
307
441
680
496
603
355
664
682
402
375
460
732
491
306
194
526
1023
336
286
549
803
470
86
619
677
399
571
442
645
704
328
453
526
640
342
196
395
686
441
454
290
767
685
31
537
609
619
371
301
652
700
459
295
486
809
531
344
380
478
893
161
615
533
752
831
394
518
559
714
411
380
539
627
581
322
467
1015
318
548
439
675
578
185
844
574
555
369
397
485
604
487
223
623
765
449
530
285
675
458
669
364
207
858
449
313
432
765
472
228
851
739
609
383
365
395
762
419
268
603
749
650
85
686
501
666
393
359
409
639
349
115
672
718
529
245
424
617
669
244
407
449
627
337
21
824
574
464
511
389
546
774
469
532
491
686
449
239
492
679
675
307
336
603
734
274
382
684
660
392
377
495
730
534
132
616
728
673
183
655
489
741
304
277
594
707
496
250
459
685
629
336
372
463
672
525
308
599
721
784
293
370
775
571
361
344
476
690
468
324
470
708
496
149
374
788
621
320
175
675
775
395
383
535
696
437
357
365
783
729
333
470
479
866
404
460
498
717
388
302
428
857
522
489
327
591
712
303
331
483
676
198
322
626
716
627
231
628
587
459
98
852
470
632
665
421
368
598
629
317
392
611
632
386
912
519
820
588
271
446
885
714
341
76
1023
623
74
627
307
824
485
300
358
800
465
403
497
674
549
440
222
639
724
431
401
443
819
882
436
341
667
459
516
305
446
706
465
340
465
723
417
621
371
766
686
323
269
599
715
334
270
439
861
497
481
454
637
740
126
512
535
679
444
365
437
849
632
220
694
660
614
444
365
311
882
301
382
463
709
555
256
432
703
548
615
338
635
736
277
734
444
607
572
257
525
853
668
220
424
463
860
344
328
402
1023
436
71
524
686
676
314
261
722
1000
279
533
549
674
622
1
606
908
521
258
477
570
653
262
668
410
617
537
286
460
656
503
428
269
593
686
224
404
559
748
460
291
199
1023
533
189
555
614
628
322
302
549
714
462
396
487
760
608
10
811
710
622
296
300
464
635
474
37
397
970
572
222
406
621
686
265
485
445
684
764
116
450
546
687
550
465
460
730
423
153
427
891
273
165
205
930
517
271
406
764
613
258
198
660
460
778
265
376
961
578
459
496
471
607
116
108
825
387
607
397
524
663
446
427
498
487
477
376
279
555
782
474
333
485
745
365
100
582
603
590
562
190
586
743
288
394
637
589
400
232
485
647
1023
384
444
471
582
617
334
459
694
511
202
504
771
495
453
471
548
588
396
552
549
686
526
96
530
685
545
301
569
687
686
262
492
367
723
396
292
506
681
674
312
468
579
729
327
462
612
722
386
472
356
847
469
396
439
448
942
345
183
515
758
447
392
451
803
525
331
430
652
663
225
362
585
573
682
553
573
714
577
212
520
517
776
220
424
487
717
507
262
543
729
529
253
359
602
647
442
389
413
589
492
383
252
897
509
362
462
643
678
200
301
767
682
429
368
495
980
480
180
436
523
852
64
687
422
743
425
249
668
611
486
316
333
916
657
323
465
499
777
349
283
519
735
476
297
453
685
691
467
446
572
671
428
282
474
781
662
223
532
647
576
354
372
551
806
265
174
683
674
304
452
402
619
758
258
408
534
745
287
388
446
795
464
652
449
762
886
143
446
514
576
404
502
393
831
472
299
403
771
650
107
552
674
910
417
303
522
533
936
257
440
538
1005
226
290
431
605
445
431
461
674
515
305
353
980
376
346
705
514
659
360
184
506
761
407
335
497
773
568
284
442
643
653
383
299
399
704
334
328
561
686
601
236
342
554
727
389
318
504
713
458
389
457
735
472
224
510
514
789
238
456
473
605
592
312
344
1023
518
363
386
681
672
375
87
734
714
503
399
421
916
441
442
489
644
602
369
401
458
609
421
311
594
550
681
398
518
788
586
342
353
482
668
399
284
486
732
515
184
437
609
599
408
448
495
674
329
313
469
804
481
263
486
683
529
409
412
553
855
364
290
545
707
456
363
478
627
548
530
247
681
677
410
317
447
910
476
254
468
739
602
422
428
488
724
139
465
473
673
685
164
742
667
525
482
419
455
890
280
525
533
763
370
439
460
666
688
342
426
485
725
287
277
551
762
509
260
529
750
613
224
401
467
774
110
556
453
739
449
247
577
714
588
480
290
595
726
264
261
407
713
406
309
419
727
652
312
411
605
735
253
311
476
715
504
346
503
751
509
256
437
690
641
254
381
574
845
452
312
476
756
493
278
341
814
634
401
339
464
595
749
138
744
516
578
343
405
685
666
336
402
402
767
472
299
545
941
525
334
442
603
671
233
335
194
1023
280
238
619
677
554
223
402
702
570
195
587
468
686
501
301
486
491
595
331
367
664
705
273
368
452
666
555
175
508
741
455
6
801
649
911
261
575
469
748
238
79
645
809
387
138
526
664
610
275
335
507
900
384
393
516
731
471
285
539
679
564
589
393
650
759
246
556
534
686
516
229
467
679
688
344
398
450
742
330
339
585
749
303
367
466
672
660
291
526
629
647
346
305
555
701
469
296
371
887
563
191
397
762
651
305
485
619
516
506
267
279
990
604
290
365
606
685
309
266
479
646
352
392
599
828
601
254
581
650
613
428
89
523
760
395
190
441
811
573
236
432
626
716
181
382
494
686
459
316
594
525
902
322
476
682
568
487
288
451
843
431
331
467
753
509
335
420
622
668
508
519
481
686
446
388
462
686
415
640
324
758
784
410
362
541
687
505
290
335
962
574
297
225
994
601
346
336
474
851
364
477
493
754
434
244
478
707
752
348
454
617
629
320
259
749
625
508
409
391
686
750
260
511
441
811
211
417
452
804
454
266
667
590
538
489
321
518
771
412
216
535
860
646
246
509
767
688
348
349
688
742
278
211
520
683
435
529
359
925
735
269
439
598
591
574
304
674
660
389
371
329
758
772
335
359
673
823
319
433
541
738
422
257
403
790
631
158
433
528
795
300
363
384
760
488
215
673
726
559
140
603
617
536
384
607
525
667
429
401
424
747
550
166
676
643
634
251
433
398
723
404
380
532
790
477
403
330
714
535
460
306
488
656
535
265
721
751
487
248
639
652
597
433
331
398
693
393
295
471
783
385
226
605
637
638
453
462
405
757
325
345
588
732
485
365
480
609
683
408
377
524
760
348
387
504
714
448
327
360
667
553
373
541
536
743
450
250
531
738
407
238
658
682
647
356
470
523
818
301
363
620
768
366
286
457
550
709
346
474
270
977
184
507
545
837
196
333
453
663
521
464
331
687
550
578
198
634
702
324
214
556
687
446
376
460
509
673
390
300
579
721
215
507
413
609
752
270
662
592
858
17
458
438
680
420
235
1023
719
433
546
376
765
441
391
511
723
395
614
251
453
708
615
366
382
574
632
408
279
488
792
467
260
443
676
580
262
123
936
679
334
310
524
797
126
629
586
720
538
285
361
554
742
341
256
525
878
248
573
554
766
604
245
314
612
648
279
558
566
672
438
336
487
763
521
267
425
690
651
418
351
451
930
344
277
568
659
536
193
267
728
516
467
725
482
674
414
361
403
839
466
254
441
744
657
324
533
517
634
564
370
430
719
533
281
540
679
583
384
315
474
892
242
391
554
600
464
397
544
546
799
368
383
526
757
467
295
583
653
403
402
371
697
619
75
616
510
808
366
279
538
744
492
237
533
583
741
257
351
413
921
436
210
570
720
451
219
663
650
381
548
376
541
762
276
297
519
834
315
405
573
675
544
366
338
594
690
310
167
538
826
416
185
607
711
603
221
480
687
598
399
303
516
687
405
337
483
838
632
434
319
753
632
214
404
612
650
349
292
561
687
407
462
426
643
550
250
478
336
881
380
313
401
766
645
272
448
623
675
226
627
461
576
725
297
489
763
485
223
378
595
582
415
492
479
674
412
261
347
748
621
294
338
800
546
493
404
495
685
426
258
487
632
673
202
446
642
645
485
417
480
767
272
262
501
831
511
349
412
724
641
293
379
552
687
384
333
493
610
399
422
444
763
655
399
154
618
688
361
337
462
797
505
384
480
667
694
310
372
458
902
349
321
554
705
487
230
432
833
567
341
423
517
718
395
297
386
828
559
249
434
755
722
114
559
575
685
333
432
399
766
450
340
430
730
497
312
391
555
751
350
372
447
687
451
296
441
676
608
359
334
474
849
364
87
651
830
385
242
606
480
842
439
346
664
648
299
17
784
734
445
190
666
699
334
368
360
685
780
315
260
458
671
347
421
642
827
483
377
385
538
654
357
489
504
796
549
237
467
628
423
437
404
601
678
314
354
449
675
508
250
562
859
529
134
686
647
632
456
135
761
589
431
291
456
723
547
275
285
783
624
481
349
519
648
447
239
642
687
580
361
358
655
648
395
354
584
760
339
302
500
763
488
228
501
613
650
400
216
657
771
401
338
539
678
457
298
476
603
759
379
381
504
759
356
342
488
741
480
343
471
782
519
541
350
617
690
368
338
489
709
475
227
714
698
617
309
453
540
711
260
510
587
780
411
235
552
645
680
416
498
615
721
338
237
496
703
481
272
504
597
658
343
242
558
797
315
349
550
708
482
272
470
732
493
355
413
644
655
312
378
447
714
478
337
484
719
556
297
443
633
608
469
479
485
572
559
253
474
759
653
308
492
580
663
344
381
516
772
453
294
461
833
523
273
386
644
686
361
319
549
668
479
397
329
919
521
275
397
680
654
411
456
252
864
373
280
596
741
536
295
363
730
728
312
394
510
800
301
252
719
679
463
367
478
683
541
510
427
477
754
373
266
588
751
542
214
521
657
587
471
342
591
778
378
291
514
636
500
143
471
737
627
388
363
469
808
364
412
478
743
437
268
420
725
624
378
468
575
750
317
287
721
677
492
271
546
681
666
311
415
430
832
327
312
634
679
320
384
400
725
714
311
495
492
702
340
362
525
632
559
357
475
758
552
328
400
552
778
242
559
438
793
583
306
493
682
543
487
485
568
688
342
407
404
875
374
289
553
710
485
273
530
569
767
306
212
461
570
512
543
524
677
682
342
299
711
685
295
576
431
567
522
125
623
761
541
227
479
608
621
422
316
511
687
471
338
401
666
604
338
439
629
488
333
422
471
660
513
462
520
762
522
317
415
686
605
283
463
542
748
420
305
489
729
640
263
499
627
566
578
336
555
635
490
316
446
715
503
191
449
610
645
285
369
526
655
263
400
547
682
553
140
671
656
669
298
397
503
632
313
319
499
836
508
301
358
621
649
453
386
533
750
342
329
720
700
426
324
441
773
584
184
475
548
903
256
587
600
693
482
323
450
745
553
460
433
506
826
201
313
461
780
640
254
422
767
653
379
500
526
1023
224
456
475
820
525
304
254
950
555
265
409
589
656
396
335
488
977
478
177
598
560
644
194
399
596
701
196
289
369
803
351
562
448
708
596
292
375
739
660
429
486
417
718
389
273
724
708
638
470
316
670
621
248
326
486
740
440
330
343
719
584
378
454
580
675
238
459
489
664
532
361
368
715
545
322
417
759
681
224
276
567
490
840
349
498
756
462
303
401
671
657
308
117
867
629
308
334
576
720
541
304
433
687
605
375
351
499
757
381
335
452
796
460
245
672
597
746
456
377
429
892
257
267
602
775
519
342
448
634
519
382
422
548
771
347
423
471
788
500
228
436
716
669
235
467
588
756
464
368
457
554
661
218
414
448
763
401
322
604
728
330
420
443
734
480
295
473
564
806
473
316
512
718
556
201
619
833
442
210
591
683
581
157
644
452
702
587
208
489
787
372
355
525
719
625
316
359
556
774
309
367
587
688
436
240
341
1023
575
316
497
612
708
331
338
481
750
431
314
413
885
562
329
447
417
796
341
369
444
763
396
284
726
754
664
300
341
686
630
217
360
469
689
476
237
557
707
593
281
470
536
755
367
310
479
807
502
239
499
742
481
388
232
646
616
334
351
589
674
359
458
487
749
450
387
290
855
682
248
337
532
695
571
222
322
753
721
222
548
539
789
264
304
529
719
263
436
425
724
233
707
362
583
606
455
477
380
613
638
375
452
633
634
412
438
475
674
256
558
519
688
284
374
475
786
364
595
455
738
632
337
454
473
685
358
321
472
752
614
260
448
697
624
361
245
536
833
415
137
567
764
396
315
557
634
626
81
749
