474
505
626
537
447
502
553
625
458
474
478
607
493
475
521
616
540
443
498
548
624
449
487
482
631
482
468
502
621
536
445
502
542
613
454
482
482
626
480
475
500
697
504
384
489
535
624
436
480
495
639
493
477
501
617
527
441
491
534
631
451
483
493
633
492
462
503
615
552
484
482
538
627
449
472
485
631
494
468
503
611
558
441
501
534
640
454
486
494
629
491
465
500
613
567
436
541
512
631
450
475
495
636
499
473
500
608
572
444
496
522
626
451
468
499
630
486
462
499
619
569
441
498
538
648
432
485
498
616
501
469
510
626
576
433
489
510
638
457
485
523
634
495
458
504
604
584
438
493
581
625
455
487
513
621
495
458
500
604
591
424
496
503
646
461
484
511
635
498
453
502
601
588
435
490
513
663
430
490
509
628
491
456
511
605
597
413
448
509
617
468
483
521
645
497
451
497
589
592
447
486
504
655
417
481
514
636
498
456
500
609
592
435
553
526
589
465
469
508
625
492
455
503
596
598
432
487
494
651
512
472
515
639
492
452
500
583
598
434
486
538
587
466
481
505
628
494
466
510
583
599
430
491
503
648
502
446
500
645
495
445
493
574
596
430
489
497
640
466
480
514
638
500
457
498
578
595
434
491
496
645
461
518
519
605
507
452
478
560
609
437
492
506
634
487
483
513
641
505
442
496
639
594
444
489
517
653
460
472
540
605
485
448
496
569
594
432
484
498
635
495
476
506
653
507
450
499
565
596
436
485
496
638
495
472
503
647
508
453
496
563
597
438
493
497
629
502
472
509
630
544
467
487
571
583
438
488
496
636
496
476
509
699
504
454
500
555
596
443
486
493
629
493
474
503
634
502
451
500
564
604
447
486
491
627
504
473
506
636
551
445
480
564
605
428
467
490
635
510
479
506
629
509
449
501
563
608
455
479
484
620
499
477
506
627
515
421
495
557
606
450
478
485
630
500
478
571
629
542
410
493
589
612
453
492
492
635
484
467
506
632
532
475
468
540
616
445
465
477
621
498
476
504
625
532
444
503
547
616
458
479
485
624
491
471
507
626
533
445
470
548
617
453
479
479
629
492
475
501
629
539
445
500
546
623
449
484
484
626
485
475
501
622
547
443
540
515
623
465
477
476
629
491
474
505
614
554
440
501
539
626
456
474
482
628
494
470
497
619
552
450
498
575
623
454
486
487
627
494
472
503
624
550
438
496
532
625
450
485
501
626
491
466
508
621
540
448
497
526
640
430
488
498
625
487
466
509
627
565
439
494
531
625
449
489
505
617
500
462
505
619
552
442
492
524
693
433
485
522
628
497
461
503
612
574
440
492
518
635
449
484
503
638
491
472
497
604
573
440
495
520
640
456
485
526
638
495
453
497
614
577
446
498
507
638
478
519
506
633
513
455
510
597
586
442
493
511
631
453
458
506
632
494
453
494
601
588
441
498
508
636
455
485
514
633
493
460
498
590
576
445
494
509
646
454
525
473
630
492
450
491
595
592
437
502
502
644
457
485
511
641
493
454
497
596
587
433
488
512
654
462
487
485
631
502
453
496
579
583
444
489
503
649
460
481
514
628
499
462
491
583
595
429
493
505
647
464
485
587
645
504
454
484
569
595
434
498
504
647
468
476
512
632
505
456
495
573
560
448
490
500
653
474
482
513
664
499
448
496
574
591
431
491
501
653
479
481
504
634
503
455
504
580
591
429
488
500
651
477
481
513
637
472
445
508
589
587
466
488
502
648
480
480
498
641
504
454
519
543
612
380
486
468
615
481
473
507
626
627
436
501
605
566
416
470
492
622
490
476
511
621
520
435
526
553
598
433
482
495
623
507
483
503
636
528
455
505
543
593
450
463
498
636
506
473
504
626
493
446
502
571
593
435
480
496
628
514
483
602
586
516
492
510
642
575
496
422
483
620
492
458
526
650
508
445
498
556
593
449
480
497
626
504
475
498
620
518
443
556
539
583
432
478
480
598
504
471
504
630
498
443
497
585
616
468
473
484
614
503
470
498
617
529
394
508
524
607
444
454
472
617
512
473
503
629
509
443
497
558
610
438
479
482
622
499
473
503
649
524
399
510
594
552
437
477
488
624
524
469
502
631
519
446
501
555
607
447
482
480
622
510
470
500
626
525
447
494
559
657
435
479
478
618
502
469
510
639
528
448
497
549
615
453
481
482
621
491
471
510
633
520
445
502
560
616
405
483
483
601
498
467
508
634
528
441
488
549
620
454
482
482
626
492
467
508
626
530
445
491
546
623
498
469
479
628
493
465
510
628
539
444
498
546
622
450
484
480
631
485
472
512
622
540
447
494
545
623
453
495
468
638
490
466
504
614
540
448
503
538
618
456
481
488
632
487
466
503
616
543
441
498
540
622
454
481
462
630
490
463
502
613
548
445
497
535
619
452
480
489
634
491
468
504
611
562
445
499
539
633
457
478
563
612
496
468
494
609
557
447
499
541
619
458
481
495
633
492
469
501
613
557
439
498
537
630
453
483
494
569
495
475
503
606
556
441
500
534
625
461
482
505
632
489
467
500
616
562
440
502
529
635
454
481
508
672
447
461
507
603
548
424
498
529
641
450
482
513
624
496
471
496
626
560
439
501
519
634
454
477
522
626
517
457
500
612
546
431
500
526
653
451
489
509
642
489
468
492
605
567
439
498
512
640
454
478
524
648
501
436
503
613
556
427
502
515
642
459
485
518
633
502
465
497
600
578
437
501
516
639
448
488
518
631
495
460
492
608
580
441
495
514
641
451
483
522
635
497
458
505
605
578
439
498
510
641
448
487
510
637
488
455
499
608
588
433
494
511
645
468
484
523
643
497
456
504
596
589
431
498
503
636
450
481
517
637
501
459
502
605
577
435
488
510
647
451
481
511
644
501
453
501
592
586
440
491
514
647
448
491
521
633
490
457
503
591
589
433
491
509
654
459
482
510
637
495
454
500
596
629
434
528
501
641
469
475
514
623
495
438
496
615
593
464
483
528
653
456
481
514
641
497
453
508
574
602
429
488
500
650
465
484
517
559
540
453
498
577
627
396
496
533
574
470
470
496
626
534
464
486
590
579
411
481
506
660
469
480
504
633
494
453
497
590
609
479
482
503
653
462
467
514
618
497
436
501
613
594
397
494
492
634
473
469
522
631
495
455
491
587
600
434
467
492
650
464
474
504
636
507
455
487
581
591
429
489
500
649
478
474
514
629
497
449
494
579
590
433
546
481
656
458
470
514
629
487
455
500
585
594
431
484
498
653
467
480
517
632
522
455
489
581
583
424
490
506
646
464
476
498
628
501
454
494
577
593
432
495
494
662
463
478
508
614
497
443
500
588
596
440
487
494
619
478
478
508
618
502
450
501
572
591
430
483
492
644
462
477
504
640
496
445
508
572
593
442
481
491
696
457
477
499
627
495
447
503
583
594
434
486
497
639
465
486
505
627
503
446
498
578
598
428
483
497
639
440
477
512
625
502
442
505
571
602
437
481
498
629
487
483
503
633
510
448
503
577
602
437
478
500
632
528
460
502
639
512
447
494
578
604
449
475
495
631
456
482
501
641
518
446
499
566
603
440
482
498
630
459
506
490
644
513
451
487
562
605
441
492
493
632
463
476
506
634
511
454
498
566
601
437
479
494
624
470
478
517
562
526
448
486
557
605
444
493
497
626
459
477
502
638
527
448
496
556
606
438
483
494
622
485
478
563
619
511
449
494
558
604
436
490
503
616
481
470
508
637
512
446
499
563
605
437
484
488
629
489
474
506
644
512
451
493
562
602
440
481
491
642
496
468
506
642
518
456
495
584
599
440
477
499
623
494
478
500
633
487
444
495
554
569
433
478
495
614
507
489
504
666
513
444
495
571
630
437
490
486
622
502
477
506
633
585
435
499
568
598
429
483
484
631
501
469
502
629
521
448
534
562
606
447
468
473
619
519
479
507
631
510
402
500
570
604
440
479
486
636
502
474
514
627
547
440
499
564
605
447
482
489
633
508
471
511
632
522
490
480
562
601
444
476
480
623
502
484
505
627
521
440
503
554
598
449
482
487
628
498
480
503
622
522
446
542
547
612
448
474
478
626
506
477
502
635
520
439
503
564
607
446
484
480
627
504
467
505
630
522
442
500
527
605
454
470
482
622
504
475
510
633
521
444
495
559
609
450
477
487
624
502
470
501
629
493
449
496
641
595
455
479
475
616
508
477
512
634
542
435
502
558
613
450
487
484
623
503
474
502
634
523
445
505
556
551
447
488
477
621
498
469
516
627
537
437
492
556
613
452
483
484
628
500
476
509
633
518
450
501
553
611
414
484
482
620
500
476
505
635
540
444
497
556
605
456
478
486
619
500
466
508
633
520
448
499
556
609
492
446
483
630
496
469
475
629
483
453
491
556
613
453
490
477
598
510
469
505
638
522
440
499
554
615
458
445
479
627
505
465
502
630
542
449
497
561
615
446
482
483
628
499
473
508
628
532
449
494
554
620
449
540
463
612
503
468
504
627
531
447
497
556
614
450
471
480
630
495
468
462
620
531
439
499
555
609
454
480
509
618
496
469
505
620
534
442
503
556
604
494
472
463
623
494
459
498
627
544
457
498
547
609
457
482
480
650
499
473
509
623
538
443
475
575
613
458
466
466
626
468
487
508
620
538
438
501
555
621
457
475
478
694
481
480
500
627
535
439
506
555
619
451
473
480
625
500
473
510
628
539
437
499
555
615
454
475
483
632
504
467
513
629
541
432
498
556
615
462
476
527
620
496
473
498
625
617
432
499
547
618
455
478
485
623
504
452
494
634
533
436
496
542
623
491
467
475
622
494
441
500
626
534
435
498
544
630
453
481
479
622
495
509
499
627
538
447
492
545
623
452
481
477
622
485
467
506
637
546
440
500
552
616
450
484
478
632
494
467
479
626
538
445
493
540
627
451
483
482
630
498
470
510
634
541
446
497
540
623
446
475
476
629
497
468
545
599
540
444
493
543
622
454
481
481
614
500
472
504
630
540
442
500
544
614
458
483
476
630
492
462
506
657
531
444
499
536
613
451
475
478
627
489
467
507
622
546
446
499
547
622
454
474
476
624
493
471
499
630
499
444
500
539
617
441
487
482
627
492
467
503
623
522
445
495
544
632
451
481
478
627
486
471
499
630
658
411
504
541
613
449
477
479
632
488
470
505
623
536
441
501
548
615
457
478
477
625
492
474
501
614
544
463
488
547
606
452
478
479
636
487
471
501
625
535
442
495
547
610
454
477
478
633
492
472
496
624
546
436
481
544
617
444
477
473
629
491
477
499
628
541
442
504
543
620
457
482
483
627
488
475
498
627
544
442
549
532
612
453
465
476
633
488
474
501
631
534
448
496
545
625
454
479
476
623
492
472
501
627
542
431
498
509
667
448
504
468
623
494
467
529
596
565
403
494
515
620
440
484
479
627
491
468
505
622
541
444
497
615
594
455
486
472
622
487
470
506
633
538
443
497
552
606
453
480
481
624
490
467
507
628
540
441
500
543
660
437
484
474
613
490
467
502
633
535
438
495
542
620
448
482
480
633
490
468
508
624
540
441
495
543
622
400
480
477
611
484
468
497
631
545
440
495
541
616
450
481
485
629
488
468
507
626
540
443
495
548
614
494
472
480
632
485
461
505
624
545
444
491
544
620
452
477
478
636
485
469
507
621
547
445
490
550
631
452
476
481
633
490
468
500
619
547
441
498
535
586
450
486
468
623
489
465
503
619
541
443
496
537
642
443
485
481
622
485
469
500
625
543
438
494
543
620
458
478
482
628
486
473
501
631
544
442
500
541
617
455
475
472
631
490
469
503
625
538
447
496
544
630
456
480
482
631
485
471
503
620
539
440
497
545
619
456
481
479
617
492
474
502
627
537
449
495
544
615
451
473
489
639
498
473
504
599
537
456
502
531
624
448
488
478
653
495
476
499
627
543
434
492
538
628
456
477
479
629
484
468
496
587
539
456
556
538
619
452
479
474
633
513
465
495
632
541
430
492
544
630
452
482
481
629
489
470
500
623
540
449
490
555
615
454
477
482
623
498
438
497
628
501
447
490
547
623
451
480
479
622
493
468
502
630
563
440
500
543
626
447
485
484
628
498
532
483
628
543
442
484
544
619
451
485
479
635
494
475
503
631
535
448
501
551
618
456
479
480
627
497
479
562
558
558
439
493
532
628
449
486
496
617
494
469
507
627
544
442
499
544
632
449
485
481
632
498
470
501
581
539
445
492
545
614
456
469
499
633
510
474
503
633
534
421
525
541
617
462
495
480
639
489
469
507
694
506
457
498
550
612
454
483
481
632
498
465
499
629
537
439
499
553
603
451
482
477
628
494
477
507
625
481
439
497
546
598
490
508
503
622
497
458
493
614
543
455
506
552
594
452
482
484
627
500
471
502
627
630
423
541
580
591
455
471
469
624
502
479
512
638
517
448
495
563
614
454
475
480
629
509
500
517
603
531
472
473
542
621
458
481
486
622
506
474
506
626
532
440
501
554
610
450
479
481
629
508
472
507
635
525
439
559
497
614
453
469
472
634
519
477
501
642
545
463
490
558
611
450
484
479
629
503
476
501
634
532
436
577
539
620
453
476
478
633
506
469
509
623
534
448
499
575
606
450
478
487
622
503
471
505
632
527
439
498
578
584
452
487
486
606
503
471
510
638
510
447
502
561
626
445
494
490
628
506
473
506
637
521
446
493
569
557
447
491
485
612
498
473
519
631
519
446
496
563
613
442
482
492
628
506
475
507
638
520
446
495
561
670
425
489
494
618
496
471
509
645
507
454
498
566
607
441
481
486
627
505
475
515
640
514
445
496
567
610
394
482
493
635
495
472
508
636
513
444
498
566
606
440
483
492
618
495
479
502
634
509
446
486
564
601
489
465
490
629
488
467
495
636
511
453
494
563
595
444
483
497
623
498
481
503
633
508
451
492
566
601
441
522
481
626
490
468
499
635
507
454
502
564
595
446
484
495
636
486
476
500
635
486
442
490
578
598
435
493
458
628
491
476
502
631
520
445
497
580
595
432
483
498
639
471
485
508
632
509
444
503
568
599
436
488
565
614
493
473
500
610
509
460
503
572
593
434
481
496
634
482
479
504
635
507
449
490
553
602
440
483
501
656
476
480
506
631
494
442
515
574
599
437
482
496
633
481
479
507
639
499
445
499
571
598
432
490
496
643
430
482
519
630
573
430
502
545
592
425
507
484
658
461
480
502
638
503
453
495
568
594
432
485
499
636
535
469
505
642
500
448
501
576
600
433
494
496
642
457
484
505
631
500
451
498
574
600
431
487
500
643
470
437
504
639
498
441
497
576
596
443
489
493
651
460
478
508
633
503
451
503
576
602
431
487
497
640
461
522
492
638
499
443
489
577
601
436
489
492
646
456
483
508
636
490
450
497
581
589
433
491
501
653
470
479
570
632
498
438
498
576
597
436
493
505
653
450
474
509
632
480
458
497
595
591
434
478
497
658
453
477
512
567
495
456
500
572
581
435
497
499
647
452
480
508
634
495
454
499
590
579
432
494
500
652
452
486
515
709
487
460
499
595
577
436
489
505
650
449
485
509
628
492
452
505
582
577
446
494
504
653
449
482
512
633
452
450
497
594
567
430
492
505
654
451
485
512
642
489
454
504
602
582
434
494
506
659
450
480
510
639
538
432
506
588
574
427
492
513
651
453
481
510
639
490
457
498
599
586
434
495
516
646
445
485
511
636
488
506
484
597
581
431
485
507
636
458
480
514
638
491
455
499
602
583
437
492
523
654
450
480
511
626
490
459
560
578
582
434
488
513
639
462
482
513
634
489
456
500
608
578
436
490
514
631
457
486
502
636
481
466
536
570
578
444
487
505
636
454
489
513
639
488
463
504
603
584
429
495
520
621
460
480
505
637
492
465
496
669
566
432
499
514
624
452
480
507
636
471
461
496
612
567
441
490
513
634
450
480
509
639
501
472
498
603
534
427
492
525
623
455
482
515
635
490
462
496
614
571
437
496
523
633
451
480
497
632
488
462
501
602
649
419
496
525
622
445
477
497
639
488
465
500
621
565
446
495
531
633
449
483
495
625
489
469
510
623
585
386
496
527
624
445
480
485
635
491
469
498
620
558
439
505
535
630
450
481
484
627
492
465
501
623
553
502
476
537
622
444
479
477
630
488
469
497
623
552
446
496
540
624
454
532
502
637
492
466
493
591
547
457
562
529
621
445
479
475
631
490
473
502
628
543
445
497
542
617
453
478
471
627
486
464
510
624
552
433
498
511
614
467
474
479
631
492
467
512
633
547
445
506
540
616
454
482
483
633
494
466
506
627
530
447
498
604
593
454
481
476
627
492
478
507
623
532
453
494
560
615
453
481
483
626
495
471
502
625
527
442
492
561
600
446
483
478
614
492
477
505
627
531
448
495
558
610
455
478
484
625
503
468
506
626
530
447
496
561
608
410
479
479
622
498
470
501
627
530
446
498
562
615
455
484
487
631
502
477
512
641
563
449
500
567
613
495
473
464
616
503
471
504
632
519
443
499
565
602
445
480
497
627
495
481
504
632
514
447
496
559
608
442
496
481
637
491
474
503
628
515
451
500
572
608
442
484
491
636
497
478
496
638
510
447
497
566
597
438
483
496
622
494
474
503
639
509
447
504
556
606
439
483
500
633
486
475
503
637
506
448
497
570
573
441
481
499
630
484
471
502
636
500
444
498
572
613
435
483
501
630
472
480
500
649
505
451
505
560
599
433
478
502
637
473
480
511
636
498
450
504
572
597
439
477
502
634
467
481
507
642
502
450
496
572
594
435
486
501
631
470
478
506
643
495
452
503
571
595
436
485
501
644
454
481
507
643
498
456
498
578
594
431
489
495
645
445
481
510
644
499
455
500
586
592
430
491
495
580
457
536
555
619
492
452
500
579
596
434
488
500
653
457
452
519
639
492
447
495
597
596
436
489
502
655
456
477
511
637
492
449
497
590
580
436
488
510
657
454
531
499
637
489
449
492
597
584
436
494
503
646
452
480
519
637
497
458
498
594
585
433
485
502
647
456
481
477
631
497
451
497
589
581
444
496
502
655
449
481
518
638
495
446
498
603
579
431
497
511
644
454
483
587
611
489
462
499
593
570
444
494
516
642
447
478
510
634
494
461
502
609
575
440
490
520
635
444
488
506
681
486
456
497
600
567
436
497
524
644
446
479
506
634
488
460
501
610
574
435
494
518
633
451
483
509
636
453
459
508
600
560
431
495
537
637
448
483
498
628
494
466
499
611
568
442
495
529
629
449
487
492
637
486
439
499
619
559
426
496
533
623
463
484
489
640
493
458
496
610
572
439
496
535
623
453
481
480
634
489
514
492
615
555
429
489
537
624
457
485
487
629
486
471
497
620
554
438
498
536
617
455
485
476
630
493
469
476
626
541
445
489
544
617
460
480
482
643
488
473
508
621
541
444
495
547
618
455
477
474
634
491
476
552
595
542
445
497
544
621
456
485
480
628
488
469
500
625
536
443
503
548
607
460
472
480
627
491
471
503
655
536
432
501
542
589
447
478
491
627
502
469
496
635
522
444
498
558
610
454
480
487
625
504
475
501
633
484
446
498
555
605
443
479
488
624
505
474
504
630
498
454
501
567
603
447
483
493
618
509
472
508
632
560
432
499
562
598
430
482
499
629
500
476
502
637
505
450
501
562
610
438
483
497
631
485
474
500
635
499
400
494
570
600
424
484
497
633
490
480
510
639
497
453
502
562
597
436
486
496
637
462
480
505
643
496
504
486
576
600
423
486
496
640
466
479
505
638
505
453
498
578
603
413
492
503
649
458
478
507
639
498
450
489
569
595
436
480
490
643
473
479
510
644
505
450
496
584
598
434
487
507
647
456
479
507
635
496
455
491
558
590
431
485
498
651
461
484
510
632
498
458
496
594
593
436
491
501
657
452
476
515
628
507
451
496
663
573
438
492
493
647
456
486
523
634
499
456
490
601
582
438
495
501
650
451
479
522
632
495
457
499
604
520
440
488
526
637
467
483
542
636
494
461
499
607
591
412
500
507
649
446
485
514
639
489
464
502
605
578
415
493
520
638
445
485
514
636
495
462
501
615
577
436
501
523
631
452
479
503
632
491
462
500
617
568
474
488
518
624
451
479
495
641
495
465
498
612
565
442
494
535
620
450
483
492
632
492
467
504
625
600
443
474
535
629
452
477
480
630
487
471
505
605
559
441
505
537
621
457
475
483
612
488
457
500
625
537
439
552
524
619
457
475
464
631
483
472
503
624
558
437
500
551
619
442
476
478
611
495
472
505
624
531
476
497
582
611
458
476
473
631
491
479
498
628
520
438
495
560
613
457
481
484
631
520
471
504
630
507
445
497
556
572
452
480
478
621
503
477
507
627
532
439
497
561
593
449
480
486
622
501
473
499
645
481
444
501
541
645
424
484
496
621
488
468
502
640
515
445
494
570
609
444
476
501
623
479
471
501
636
510
438
493
565
604
397
479
500
623
492
474
503
644
506
441
489
563
603
434
483
494
633
472
477
504
638
504
449
496
566
598
489
466
493
640
446
479
507
642
505
448
496
566
594
430
484
499
641
474
474
507
635
500
449
505
574
594
434
518
493
636
465
477
502
639
495
453
501
570
589
424
489
498
652
455
483
515
641
500
454
496
580
586
433
489
550
639
459
476
514
627
495
452
506
589
589
431
494
501
647
451
485
508
639
488
451
503
578
578
433
487
556
637
457
476
508
628
495
442
485
625
576
394
538
527
641
447
475
507
662
485
503
486
600
566
422
491
513
638
439
481
509
625
494
463
501
616
565
441
504
515
635
451
489
506
631
494
465
496
602
575
431
494
522
630
414
482
509
616
495
456
501
615
577
439
494
523
634
450
481
490
629
490
462
497
617
556
438
499
528
625
486
476
491
625
486
463
495
621
559
445
495
537
623
449
482
479
626
486
466
503
625
543
446
496
535
620
448
453
473
630
485
466
499
631
545
445
500
541
617
450
483
476
625
494
469
501
617
537
434
500
543
623
450
533
464
630
491
463
500
620
534
450
498
546
611
452
477
479
625
499
469
506
628
525
445
494
558
613
451
483
513
619
505
472
499
625
524
451
498
563
607
438
477
488
641
498
480
501
632
508
450
495
569
594
450
480
487
574
499
473
496
622
508
446
499
570
603
439
484
488
629
479
478
505
629
505
451
495
574
603
436
480
492
691
482
474
513
625
501
448
501
575
596
443
483
493
640
461
480
506
631
508
444
500
578
595
442
486
499
648
470
479
512
632
498
445
497
576
598
437
484
502
644
460
483
502
628
508
451
498
579
597
440
488
502
653
455
494
502
652
494
454
490
585
594
444
489
501
653
450
484
508
641
488
452
492
584
599
434
493
508
647
453
519
502
641
493
451
499
590
596
436
490
508
647
457
477
514
636
493
457
501
590
589
432
490
512
642
458
477
543
624
494
457
500
591
586
430
505
512
641
458
484
509
636
468
443
504
597
566
399
489
527
638
462
481
533
613
493
465
498
603
575
438
507
531
632
449
477
499
635
495
468
496
607
565
438
494
528
630
452
484
492
632
491
470
498
618
564
443
495
533
622
452
481
488
634
486
469
498
615
548
436
500
537
615
451
477
476
631
488
469
501
616
563
443
493
544
618
453
478
480
628
489
468
502
624
543
443
497
550
616
456
470
482
625
501
467
496
632
538
447
489
547
587
459
480
479
622
501
469
505
631
532
450
495
554
618
452
484
479
629
500
476
502
631
521
452
500
557
618
447
479
487
625
504
476
507
634
520
445
499
565
600
446
486
493
634
506
500
498
628
510
444
504
562
605
449
474
497
643
486
474
502
639
498
450
496
562
595
475
506
457
631
487
466
542
633
508
455
502
569
606
443
484
491
630
475
464
509
613
503
455
496
571
611
432
483
501
647
465
478
506
575
506
452
501
569
603
429
493
499
657
459
478
506
637
498
456
496
587
586
437
489
498
651
460
475
507
696
477
454
503
580
573
431
492
500
654
456
481
508
634
499
445
503
593
579
433
488
505
664
442
506
510
647
527
453
516
589
579
424
455
494
651
461
505
510
635
495
463
498
592
573
421
488
509
647
450
481
515
632
490
426
492
608
570
431
491
513
653
453
489
511
634
491
456
496
620
567
441
499
518
637
444
490
504
632
488
508
513
612
563
436
478
500
647
457
495
515
622
490
434
505
627
562
429
490
534
620
451
483
492
633
494
471
525
643
549
439
486
523
612
458
488
486
631
483
472
500
621
562
452
493
541
616
446
482
477
628
488
469
499
580
613
390
466
534
605
444
479
468
640
490
470
496
618
543
437
500
553
615
453
478
475
629
497
472
506
679
535
439
502
546
610
456
482
480
627
496
470
505
625
537
450
499
559
607
453
477
480
624
499
469
499
624
530
461
468
558
582
431
471
486
634
508
463
502
629
513
448
498
561
620
438
480
492
629
500
488
502
634
510
420
494
567
603
433
482
493
626
495
478
505
640
504
449
498
563
614
433
484
496
632
485
479
503
637
500
488
490
570
602
429
482
496
637
471
482
507
635
501
452
502
569
603
428
483
498
650
464
478
505
637
495
442
482
573
600
431
485
498
657
469
482
520
636
499
454
495
588
591
428
492
500
654
457
482
512
642
494
458
552
606
541
437
485
490
638
458
482
520
632
491
453
502
589
592
437
495
503
638
458
479
511
636
492
458
491
599
580
437
491
503
636
457
485
516
630
490
466
503
591
580
433
491
511
637
454
480
518
634
492
462
502
597
543
436
499
509
623
452
476
516
628
495
463
503
598
573
437
497
524
623
450
483
500
626
495
465
499
611
647
414
501
525
618
445
480
495
634
486
464
494
619
557
444
499
529
616
447
480
486
622
487
471
503
621
548
456
504
499
621
443
464
466
628
494
477
504
619
541
445
501
541
619
447
478
480
622
490
471
507
621
540
446
485
547
613
453
474
471
621
505
476
500
619
530
458
493
553
607
447
482
483
620
509
490
511
627
523
457
539
510
603
448
477
477
618
504
476
512
629
514
442
503
558
606
438
486
490
627
508
481
505
629
507
444
499
541
595
439
476
490
625
496
471
513
636
508
451
500
569
598
432
482
498
624
485
478
504
628
510
453
496
619
596
406
489
489
630
459
477
513
641
505
451
500
571
602
441
493
496
646
451
478
508
625
500
456
508
567
636
418
492
495
640
460
485
514
637
498
447
496
583
592
440
493
496
655
451
474
520
629
494
458
503
587
585
397
496
492
656
455
482
513
632
497
463
496
592
579
436
497
504
645
452
475
517
627
500
461
507
588
583
492
470
513
636
461
442
514
629
487
453
496
617
584
446
496
513
635
453
490
507
634
494
461
498
615
566
431
494
476
641
450
486
488
637
485
464
504
625
573
434
495
529
629
451
482
484
628
490
464
501
616
551
444
494
507
622
452
480
471
631
493
474
500
624
549
445
493
540
619
450
477
477
626
496
471
499
624
540
448
489
603
552
451
478
467
618
496
472
507
625
528
445
492
555
601
456
480
477
624
502
473
505
622
526
446
493
554
562
444
482
486
615
503
474
509
630
522
451
494
561
604
445
479
490
619
495
482
503
630
512
444
500
568
637
447
487
482
618
459
465
496
629
520
456
498
561
596
438
490
492
627
470
473
500
631
507
449
495
576
601
468
481
497
638
466
473
508
640
500
448
498
573
597
438
490
492
649
458
478
504
638
500
449
497
582
593
433
466
492
646
454
481
507
640
501
455
497
576
597
437
493
499
646
456
484
509
639
499
448
501
587
587
431
535
497
646
458
468
508
642
492
456
497
593
586
433
495
514
634
454
482
510
634
489
456
498
597
588
432
496
534
602
451
481
509
626
494
461
495
613
572
430
542
507
634
452
479
494
629
497
464
491
610
561
437
495
532
586
454
479
483
630
488
473
501
614
563
431
496
534
624
440
474
480
621
483
462
497
626
563
434
498
533
666
432
483
480
626
492
472
502
661
552
436
501
534
610
451
478
486
629
504
467
500
626
538
447
497
547
615
426
473
478
624
496
470
499
632
522
442
498
552
615
453
479
481
615
512
472
508
635
518
445
500
560
609
477
474
490
617
499
472
500
635
513
447
499
561
611
440
482
482
631
463
475
499
642
520
446
502
569
604
432
513
487
636
481
481
505
636
509
450
499
570
597
431
488
499
639
465
476
506
634
494
460
497
570
588
434
485
505
653
457
473
501
630
493
455
509
588
580
438
483
496
650
457
477
521
638
492
455
502
584
594
434
490
540
643
456
483
507
631
495
460
505
594
595
429
494
502
655
454
479
515
631
493
462
496
602
590
435
494
509
658
451
484
497
622
488
448
494
620
589
442
498
509
637
457
483
503
630
501
465
496
614
573
439
493
526
633
422
488
497
626
492
464
499
607
567
437
496
521
631
449
488
488
625
492
463
500
618
550
442
503
534
623
484
481
486
623
490
467
501
623
544
441
496
539
623
451
478
476
626
486
467
504
632
538
447
495
545
620
446
479
481
623
494
470
498
642
512
438
495
548
617
459
483
490
625
498
471
507
631
506
453
487
563
612
454
480
480
625
506
476
507
631
512
443
503
553
608
445
482
490
625
507
473
501
633
514
453
497
564
595
431
485
496
626
480
476
509
628
511
450
498
571
599
436
486
497
639
478
479
504
633
503
449
499
569
591
434
493
488
652
464
478
505
640
501
450
494
585
591
435
488
500
653
452
479
514
630
492
451
496
590
595
435
488
498
647
453
476
555
620
498
455
498
590
585
434
491
500
645
454
478
518
633
488
456
499
600
575
439
490
507
646
457
482
514
632
493
452
501
597
588
434
491
512
639
454
482
507
638
492
470
495
618
577
438
493
525
631
468
472
491
630
484
463
498
616
572
440
495
525
622
452
492
482
633
482
467
496
606
558
442
492
549
619
452
520
481
634
493
460
488
603
555
443
503
545
617
447
477
483
625
491
467
505
628
541
440
495
544
616
458
481
457
630
499
470
502
612
550
441
497
553
608
451
477
478
626
505
472
506
625
516
442
499
559
606
450
478
516
599
507
472
495
627
515
445
501
568
602
442
485
489
626
498
481
502
632
500
447
497
567
602
440
486
492
659
459
483
500
628
504
446
504
568
608
437
482
493
638
502
480
505
637
508
453
504
572
597
433
483
498
646
433
478
508
635
496
445
500
584
597
432
489
503
649
456
477
510
638
494
457
503
579
598
432
497
497
687
468
472
545
628
488
442
500
597
599
441
493
504
649
453
487
516
635
490
459
499
618
597
432
489
506
639
451
502
494
629
483
454
492
564
582
441
499
520
634
455
481
509
647
490
461
505
605
570
438
497
514
628
442
482
479
630
485
468
491
604
560
432
493
534
620
445
485
489
627
489
473
501
617
555
443
499
537
626
447
487
536
625
494
461
495
606
543
439
493
541
621
452
481
469
628
494
468
500
624
537
437
502
541
621
447
484
476
573
495
474
500
614
526
440
498
547
617
451
474
482
627
501
475
507
636
528
444
500
552
610
449
476
493
665
484
475
508
626
527
440
501
566
615
441
481
483
626
487
476
502
629
508
451
506
558
609
433
483
494
626
524
470
515
634
505
441
494
579
599
438
486
500
631
478
475
505
635
499
450
497
572
608
432
485
495
636
460
446
500
641
498
446
493
569
602
434
487
492
651
458
477
507
633
497
452
497
589
594
432
491
502
647
451
546
497
642
495
444
493
580
601
429
497
504
646
454
484
521
640
489
453
502
588
587
429
495
510
646
455
479
524
632
504
416
491
573
548
427
501
531
650
453
481
501
634
496
468
495
611
564
434
498
521
633
460
484
500
606
500
463
492
604
551
443
501
522
636
453
483
493
633
492
464
500
621
548
443
498
533
628
448
482
484
629
462
469
501
616
540
439
491
544
625
446
489
473
634
491
468
503
625
540
448
496
545
621
448
476
482
625
455
469
504
621
517
441
494
560
620
451
478
476
623
504
468
506
637
519
444
499
555
609
444
481
487
628
572
483
504
629
510
436
492
559
615
438
485
486
627
504
480
509
629
507
448
500
567
604
440
482
491
633
483
502
494
630
510
442
498
565
600
434
487
491
640
468
478
501
631
514
452
501
575
598
429
484
501
640
463
481
475
627
502
446
496
570
602
436
496
496
647
457
482
509
638
502
451
506
594
594
434
490
500
653
453
478
577
627
500
472
499
619
585
439
489
504
674
445
473
513
631
505
454
499
593
588
434
486
500
646
452
481
515
647
489
460
495
591
584
435
487
519
642
451
487
512
625
490
460
502
601
600
434
495
521
644
448
484
503
633
470
460
501
605
581
431
494
529
631
447
474
492
635
500
464
502
619
560
442
493
538
628
447
480
478
635
529
473
479
619
547
431
487
538
634
458
484
473
638
489
468
502
628
545
444
499
542
630
451
482
474
628
493
439
499
638
532
438
498
548
620
458
475
477
628
495
474
507
627
528
446
497
560
608
450
481
485
627
506
474
560
593
535
430
496
548
594
449
488
491
632
504
475
506
633
512
451
500
562
602
442
484
491
632
500
474
502
597
509
446
498
566
599
445
488
496
636
482
475
507
620
502
447
480
572
602
446
478
541
657
452
495
504
639
487
451
494
559
593
440
488
505
654
465
477
476
638
524
441
495
569
591
431
493
508
647
462
485
504
699
490
452
501
578
600
430
488
505
655
459
486
506
643
499
457
506
583
590
437
490
507
650
457
482
513
631
492
501
504
591
582
429
490
508
657
454
478
515
637
491
462
510
595
585
436
493
505
640
458
481
503
634
492
446
509
604
574
432
496
516
637
460
486
495
635
488
464
501
598
579
440
491
524
635
449
479
490
634
503
509
502
593
558
420
484
540
630
471
481
493
634
507
473
506
620
559
432
497
531
623
460
485
480
629
492
470
470
621
605
430
492
540
622
458
477
481
625
490
469
503
627
541
440
498
548
621
456
480
484
616
499
467
551
607
533
447
499
556
620
452
482
480
623
499
473
506
631
527
436
499
558
614
449
476
487
614
502
476
503
620
510
450
500
556
605
443
482
487
620
507
471
509
633
507
450
503
564
605
442
491
493
624
469
483
499
636
483
447
499
562
593
434
486
500
634
497
478
508
631
500
454
500
562
603
439
486
499
634
470
477
506
642
611
457
479
613
588
419
475
487
635
472
457
515
616
506
428
510
578
619
427
487
501
650
465
461
511
637
503
466
496
588
538
421
477
481
655
472
485
516
629
492
447
489
602
583
441
492
493
639
454
476
513
644
492
458
481
588
587
432
489
510
656
472
479
512
631
495
462
498
600
584
428
498
512
640
449
480
514
630
494
460
535
588
581
439
495
513
637
451
487
508
633
496
466
494
612
564
432
495
520
634
450
483
498
633
490
467
500
561
564
441
494
525
626
452
486
484
630
491
467
504
625
561
438
501
532
627
450
484
481
630
488
470
499
622
552
440
497
540
625
449
486
478
620
493
469
507
627
544
446
495
546
623
453
481
472
626
497
469
509
625
531
438
502
551
615
455
476
474
610
502
468
496
627
532
450
502
564
612
442
483
482
609
497
471
503
630
527
448
497
567
612
442
479
484
613
505
472
504
627
516
444
502
587
599
460
484
488
615
529
475
491
629
502
440
493
561
605
438
488
494
631
474
478
508
633
501
448
500
566
585
434
489
493
634
470
478
506
638
502
436
517
540
587
429
473
492
660
462
507
501
610
517
448
494
613
619
450
482
499
647
461
468
490
618
501
442
498
523
597
426
485
496
647
458
473
504
638
520
422
527
622
586
458
476
498
644
455
479
499
630
489
450
509
573
540
421
490
494
639
453
489
522
638
498
456
492
593
589
433
493
504
644
475
486
499
637
490
456
505
598
528
426
498
515
624
451
486
512
631
494
462
497
605
561
445
499
523
647
448
476
503
632
475
462
497
570
619
414
496
526
633
452
484
488
626
489
468
498
616
563
435
495
538
625
452
486
492
633
488
474
496
619
557
471
488
530
624
446
477
476
634
491
469
506
615
549
441
500
537
622
447
485
481
632
495
468
502
620
554
443
524
545
618
451
475
476
627
498
473
505
627
539
443
500
552
613
476
495
465
632
547
456
534
576
519
456
553
534
622
457
475
493
620
505
475
532
629
540
434
495
554
612
447
482
484
621
524
474
554
602
520
442
493
518
613
446
479
484
606
515
468
507
637
526
444
500
569
607
443
488
508
694
512
470
495
620
501
450
533
618
599
431
491
479
623
469
483
507
634
500
449
503
576
602
431
490
499
655
448
479
498
647
484
467
502
569
656
403
505
487
637
466
475
511
643
504
445
499
579
601
444
489
488
653
461
476
509
636
502
457
484
581
601
380
494
495
649
448
479
512
637
492
457
498
594
580
436
494
496
660
457
480
509
638
493
453
497
595
584
483
459
496
650
451
474
515
631
498
459
505
601
585
438
496
506
653
446
485
521
634
499
465
496
597
561
438
530
505
643
447
480
507
636
489
457
497
590
583
433
493
518
644
448
487
505
631
500
464
490
614
575
441
492
545
651
425
483
492
617
489
465
509
627
562
454
493
515
630
450
483
488
629
492
466
495
621
558
439
492
604
612
451
486
482
621
484
469
504
629
556
441
495
537
626
447
483
478
626
489
469
507
629
539
441
496
536
633
414
475
470
632
486
479
508
638
541
446
495
542
621
450
481
477
626
498
470
505
636
539
465
498
566
616
414
479
478
635
498
483
502
631
537
440
501
547
614
445
482
488
629
516
475
506
610
516
439
497
566
615
491
436
486
621
489
462
499
631
527
449
497
551
604
445
481
503
626
492
474
502
649
516
466
516
571
601
433
443
478
625
483
466
495
632
512
443
499
564
600
458
482
516
657
476
493
504
632
506
446
503
582
598
426
555
464
662
460
489
505
633
503
444
498
560
590
431
487
498
637
465
471
504
629
499
452
498
574
589
440
487
536
642
460
482
493
638
498
455
499
581
585
435
491
491
653
459
476
504
625
495
445
501
575
587
426
487
498
665
441
484
497
626
476
481
510
584
591
430
485
500
650
456
479
510
635
492
462
502
589
589
438
491
505
731
425
488
518
632
487
456
504
612
592
432
485
505
640
453
482
513
634
494
462
500
604
585
437
502
509
636
471
450
511
631
486
451
493
608
587
443
496
520
614
459
502
535
554
481
459
466
629
558
471
503
508
627
445
445
492
636
491
470
497
610
569
440
502
524
630
452
486
486
632
494
468
500
617
556
437
504
536
624
449
539
466
629
491
464
496
616
561
446
502
534
626
451
484
480
628
486
468
499
621
545
446
498
536
622
453
476
429
624
483
472
484
617
553
428
499
537
654
444
503
471
617
497
475
497
628
530
447
500
547
614
450
479
537
601
505
465
496
624
527
473
502
554
606
446
481
482
604
509
477
503
627
521
448
501
567
608
444
485
491
665
502
479
499
624
506
447
501
562
611
441
481
494
628
495
466
504
631
506
484
493
624
597
439
472
483
632
501
514
511
627
501
443
501
576
615
440
483
491
638
478
476
514
639
501
450
500
569
600
428
483
500
638
544
458
509
629
500
446
492
580
612
432
484
492
645
456
479
544
626
482
477
499
628
588
436
488
496
650
458
483
504
639
493
447
490
579
600
432
495
493
649
459
486
511
632
499
451
496
598
601
430
487
498
655
453
537
492
633
493
453
491
589
582
441
492
497
655
459
476
514
628
496
457
495
603
579
434
495
500
649
452
482
579
611
500
453
493
592
583
440
494
508
643
451
484
518
635
488
460
497
605
580
433
509
490
687
470
509
527
529
492
489
488
649
603
432
525
510
640
448
488
503
628
484
463
499
606
557
439
495
519
638
448
483
499
683
474
460
507
603
552
431
500
529
617
449
483
490
624
491
468
506
623
551
443
494
531
632
448
493
485
629
518
461
502
614
546
437
486
541
626
469
475
485
636
492
470
498
618
548
441
495
522
613
461
525
469
625
504
435
496
616
533
437
479
562
636
460
491
483
622
494
467
500
580
572
416
483
553
621
442
487
467
642
495
478
469
638
549
464
487
562
611
458
476
479
616
498
469
502
576
531
440
492
560
609
448
480
469
624
504
477
534
592
521
440
495
550
625
445
488
492
625
507
483
507
636
520
446
493
560
598
439
482
494
625
499
473
506
632
494
470
487
556
581
439
473
499
609
484
471
501
601
509
436
497
592
605
440
498
506
618
478
475
504
698
506
450
489
561
597
445
490
507
647
472
476
507
582
503
439
496
581
597
430
487
498
647
463
491
510
639
456
447
514
570
603
430
493
515
655
450
480
507
632
494
447
508
581
591
436
491
509
653
427
486
499
631
497
453
500
584
573
427
493
504
639
457
482
509
639
495
458
511
596
569
440
493
502
650
449
475
514
631
495
464
514
594
596
441
493
506
648
450
486
515
638
498
459
501
597
580
432
498
507
638
456
476
512
581
494
460
499
609
584
432
495
512
643
452
484
516
638
493
461
500
612
582
435
491
520
637
453
487
509
636
491
464
496
621
582
432
498
520
630
443
496
489
606
490
460
493
606
580
443
501
521
641
445
482
496
652
479
463
489
616
567
444
499
530
649
452
483
486
623
492
469
502
631
555
445
499
534
621
449
511
477
626
451
462
489
692
529
443
501
542
618
450
483
484
632
489
469
501
626
550
452
495
543
615
454
489
449
623
500
466
501
615
601
473
496
550
619
442
471
478
631
510
471
512
617
534
446
494
555
616
450
481
483
627
505
474
506
620
525
410
496
564
606
436
480
483
633
502
477
501
630
509
447
494
556
607
441
485
487
628
503
476
503
622
532
446
467
561
602
435
477
487
627
499
479
505
630
509
453
498
566
604
440
484
490
632
478
478
507
629
512
450
529
556
599
430
490
490
633
466
480
502
633
508
448
485
587
587
415
470
487
607
447
484
528
681
497
453
495
533
604
432
484
496
644
463
479
506
630
504
455
496
586
590
437
489
497
650
458
481
502
638
494
453
500
684
553
440
487
490
649
452
491
523
632
494
443
502
592
588
436
496
495
646
458
475
512
639
496
448
505
587
598
421
499
496
643
450
484
524
634
500
446
499
590
583
435
510
510
640
451
481
517
637
493
452
498
594
678
399
491
510
637
445
482
514
642
487
454
510
587
587
436
497
512
633
452
484
513
636
495
463
494
608
578
471
505
502
639
451
462
502
644
497
442
498
598
555
461
490
527
623
450
477
504
654
490
459
497
605
563
433
466
531
621
452
483
490
632
487
471
492
617
561
442
526
530
624
469
477
486
615
473
469
502
613
554
444
565
515
617
455
474
479
625
491
476
496
629
543
433
496
540
613
461
481
486
626
485
468
505
619
534
446
501
507
619
455
476
479
620
501
474
510
628
525
459
497
555
620
460
484
492
603
494
471
505
626
535
448
497
550
574
457
481
480
617
501
471
500
631
523
448
498
555
608
449
477
492
621
499
479
499
637
521
442
500
559
669
429
484
491
613
498
472
504
633
509
449
494
564
603
442
478
489
617
500
475
503
629
510
456
499
564
596
373
486
499
621
484
475
507
628
506
455
494
563
585
440
484
497
627
483
471
506
631
499
453
497
567
584
518
466
496
631
472
469
505
640
502
456
502
572
585
434
491
500
639
466
480
503
631
500
452
499
575
583
433
544
490
628
463
461
502
653
500
461
503
572
581
429
489
511
636
486
477
509
611
497
446
494
569
579
432
489
452
642
456
475
503
629
496
460
498
598
572
435
489
503
650
451
482
512
631
488
455
498
595
576
436
491
555
611
457
472
501
658
487
463
506
568
559
460
475
514
629
459
495
490
628
491
454
491
600
574
441
491
517
685
438
488
551
616
490
456
500
612
573
433
495
516
658
436
481
506
621
480
464
491
612
573
439
490
522
634
461
487
501
646
488
452
521
613
597
436
489
523
621
444
477
499
630
496
455
495
615
553
439
483
531
627
506
470
488
631
483
459
497
617
566
448
495
535
625
449
490
477
644
486
469
499
616
551
444
496
536
620
452
486
473
636
485
468
500
622
551
448
492
545
621
451
482
474
633
493
467
500
626
537
444
494
546
615
451
549
459
629
496
464
490
619
546
443
497
551
609
453
480
479
616
507
476
511
626
540
444
498
555
605
453
479
534
606
502
472
499
619
523
449
502
569
604
451
482
480
623
500
473
498
634
514
443
500
565
602
446
474
484
556
503
483
499
623
515
447
502
574
605
436
454
494
597
499
464
507
619
508
448
511
569
604
436
470
494
677
463
475
506
631
509
447
504
571
604
438
479
500
631
481
475
505
635
510
452
499
568
594
440
479
507
630
448
473
508
635
495
443
500
580
595
442
482
495
634
468
477
507
638
505
452
503
571
589
432
485
501
638
464
445
505
636
496
443
494
574
595
433
486
499
641
461
463
525
600
512
472
497
571
587
428
498
523
603
456
543
490
642
498
450
497
584
584
435
491
511
648
454
481
514
638
496
459
494
593
589
425
470
514
641
455
484
478
624
489
448
505
588
581
443
496
508
636
460
478
522
640
496
463
500
600
580
392
495
521
699
432
479
479
