501
623
457
489
514
612
505
453
503
567
568
445
490
505
613
458
479
506
614
506
456
534
577
552
445
486
501
611
470
476
498
613
505
457
500
561
560
444
487
501
608
493
478
515
617
512
450
492
576
574
447
483
494
599
504
476
511
617
501
456
502
564
574
443
482
497
602
503
479
507
612
510
455
497
555
582
431
483
495
590
500
473
507
607
513
448
494
551
583
444
491
498
606
496
469
508
609
510
454
498
547
613
448
488
491
594
493
467
506
613
514
454
499
546
592
456
492
493
601
488
477
510
619
519
453
503
543
602
451
486
491
602
485
470
506
613
513
451
498
540
594
461
482
494
611
491
469
507
601
536
450
497
545
613
457
479
495
621
489
472
501
595
539
443
495
534
609
454
482
503
619
491
464
503
595
543
447
495
537
609
455
509
497
622
492
461
498
591
542
455
497
527
618
460
486
516
622
490
468
505
587
559
442
496
522
611
466
483
503
624
492
470
497
628
574
459
509
488
568
456
479
516
612
507
466
504
577
565
446
502
515
617
468
476
545
606
495
460
503
571
562
445
495
515
622
460
480
518
622
499
463
503
570
564
439
491
508
622
468
473
527
634
502
461
497
577
568
444
493
532
624
488
488
524
632
498
456
497
571
550
447
483
501
618
475
482
516
613
489
466
509
558
576
433
474
496
629
465
477
516
613
500
458
501
566
566
441
488
503
612
464
492
504
610
533
453
500
562
558
441
486
502
625
486
481
508
610
511
451
500
561
578
449
484
498
608
504
490
502
622
511
452
494
557
584
452
475
504
602
497
478
514
618
509
456
503
554
602
455
481
493
607
497
484
510
616
511
450
497
543
590
452
481
494
607
495
477
507
611
523
455
502
545
600
463
479
490
608
487
472
501
606
524
454
501
535
606
452
483
493
611
490
475
501
602
531
449
499
534
605
462
484
504
607
489
469
498
614
538
455
497
527
606
458
488
497
611
491
470
501
606
543
453
501
522
607
457
485
510
621
488
463
506
588
551
448
493
523
611
461
492
511
614
500
466
502
585
546
448
494
517
625
458
481
528
602
498
461
509
592
552
441
493
512
617
452
486
516
624
523
453
503
594
549
439
497
511
616
468
484
507
623
495
460
510
573
570
448
487
497
634
457
473
537
612
508
452
493
589
567
440
484
547
608
466
489
508
618
502
455
501
572
578
437
484
532
618
509
484
511
623
503
444
503
561
575
447
481
514
618
490
477
507
616
502
452
504
569
578
444
482
505
625
479
486
529
615
517
451
492
565
568
438
489
498
614
507
488
507
608
515
434
498
607
568
437
486
491
612
484
481
500
593
521
447
497
552
588
443
491
525
586
489
473
510
613
511
457
496
550
588
448
475
494
586
483
474
510
596
491
439
505
557
574
449
471
484
616
496
483
503
599
510
430
511
615
563
462
484
489
578
514
471
495
616
532
433
501
530
592
481
453
480
667
458
471
516
595
526
434
508
517
603
509
465
499
611
484
468
494
590
608
434
508
538
606
450
470
499
619
495
470
500
604
556
456
499
532
607
455
481
545
610
498
470
504
590
552
467
493
527
613
449
484
505
629
488
444
506
564
558
439
489
525
617
443
483
509
648
498
464
507
596
546
465
487
527
620
455
480
515
617
502
469
503
612
575
442
490
512
658
447
491
523
608
498
459
499
579
577
448
489
541
615
457
492
514
614
495
459
495
573
555
442
500
506
624
465
484
506
621
519
447
491
574
554
443
477
502
636
471
462
521
614
497
451
494
571
568
449
484
504
626
480
487
516
606
506
452
501
573
571
447
488
493
612
480
484
529
609
503
462
496
552
575
440
481
503
616
507
476
508
623
505
457
497
562
582
447
484
527
602
502
470
499
619
502
479
497
572
577
457
481
488
605
504
491
501
626
503
451
492
554
576
444
489
483
591
494
476
504
610
508
454
497
550
588
462
480
493
606
503
474
499
617
516
455
507
541
599
451
484
484
641
478
473
505
604
510
445
499
537
609
455
479
491
621
487
468
502
602
516
454
494
544
604
444
477
496
609
499
472
508
600
533
451
493
543
599
460
489
501
617
489
467
499
591
552
446
498
533
600
457
482
506
624
495
457
500
588
545
448
491
525
612
459
486
517
609
497
463
502
585
547
443
496
526
615
461
483
525
622
493
486
498
587
549
440
495
514
620
473
483
519
618
487
461
501
587
556
451
493
515
621
461
475
529
630
493
461
509
577
607
423
495
512
624
462
483
516
625
493
460
497
577
569
441
495
510
625
464
475
515
624
502
455
502
561
563
439
481
503
619
471
486
518
615
497
457
493
563
565
434
487
502
621
501
470
510
612
504
456
491
605
563
436
487
501
622
498
476
507
619
505
450
499
570
569
442
487
502
611
497
488
515
641
502
450
492
563
537
449
480
503
603
501
486
509
618
497
451
501
562
585
451
487
494
604
500
474
511
617
525
453
499
554
617
445
485
493
607
482
476
503
623
510
452
494
550
598
455
482
488
602
488
476
511
612
523
450
500
544
597
473
478
492
607
485
467
508
611
526
456
498
538
590
465
476
495
613
487
470
500
608
532
446
497
535
605
455
473
492
614
484
465
492
602
544
454
496
531
607
454
490
502
609
496
471
502
594
541
446
500
522
616
456
501
513
620
498
460
500
596
537
448
497
518
615
451
487
518
613
494
463
501
602
561
448
487
526
625
463
486
518
618
511
454
496
589
560
444
492
511
628
464
478
505
615
503
455
507
576
554
444
492
502
630
461
474
510
607
502
456
496
573
576
441
486
510
617
475
475
509
634
497
455
497
565
574
445
490
502
623
489
475
514
646
504
455
493
563
572
442
489
500
611
493
477
509
622
506
452
496
565
590
444
484
499
610
499
474
514
619
492
452
501
560
586
447
480
507
607
500
475
506
618
505
461
499
563
564
447
487
498
592
498
470
513
621
533
440
495
555
579
450
485
498
602
498
473
511
599
512
454
502
546
602
453
485
485
615
485
472
509
606
528
465
496
544
591
451
484
486
617
490
472
508
605
521
446
500
547
601
456
484
491
616
488
470
508
617
525
449
494
542
593
462
487
489
614
503
476
500
593
533
446
494
536
594
464
490
511
618
500
476
498
602
537
444
516
521
605
457
483
525
618
494
467
502
598
546
443
500
511
612
456
479
515
626
514
458
494
592
579
439
496
505
628
454
485
510
623
495
458
501
586
557
439
499
513
619
455
485
521
627
490
456
499
589
555
433
491
502
607
459
483
511
619
492
459
501
582
561
443
494
498
626
476
485
511
615
497
459
497
574
572
437
489
505
644
490
482
517
611
505
456
504
570
570
444
490
504
618
481
485
508
604
509
455
495
566
567
443
484
507
607
484
470
515
608
505
455
507
565
568
453
480
498
609
503
479
510
608
502
451
496
564
574
453
483
495
605
517
478
508
590
503
448
497
553
590
458
493
491
598
493
479
510
602
513
452
504
559
590
458
482
494
614
488
490
495
609
518
438
509
547
589
462
482
485
611
492
471
499
615
528
445
497
550
601
457
485
515
604
485
473
500
601
529
448
498
535
602
461
486
492
612
486
458
507
600
538
448
491
552
591
461
491
501
608
491
462
531
597
547
449
486
531
603
461
492
506
618
489
468
510
596
544
453
497
523
628
464
484
504
626
489
472
507
596
548
456
491
526
612
455
475
517
620
494
461
510
578
559
453
490
522
619
457
489
508
622
495
457
501
590
550
449
488
506
614
461
487
518
631
503
455
500
580
556
442
497
505
600
442
491
504
630
495
469
489
538
590
431
485
518
622
467
492
495
605
502
460
503
564
564
443
488
513
610
476
485
505
619
497
455
498
586
569
442
493
499
612
476
487
505
616
502
456
497
565
570
448
485
498
626
479
472
515
620
512
454
501
564
581
448
485
498
599
500
464
514
612
501
472
478
545
622
432
485
505
591
495
479
494
597
554
454
497
577
583
447
483
475
608
519
471
516
620
526
439
521
572
599
475
471
481
628
489
466
509
600
557
438
491
583
577
457
482
520
565
477
520
515
597
612
439
488
538
555
442
491
464
626
483
461
506
595
521
431
483
534
594
482
461
548
520
493
480
497
555
567
457
506
538
621
470
460
486
610
500
464
509
562
535
458
456
528
585
460
483
494
572
502
458
530
571
632
410
479
545
606
450
556
501
604
490
465
497
609
585
415
496
528
632
430
479
516
594
449
396
528
637
562
440
498
589
648
445
487
502
607
476
466
529
572
576
479
461
474
628
466
506
498
619
523
439
506
555
570
437
515
502
621
471
481
497
592
519
463
500
575
559
448
483
500
638
471
487
509
616
495
431
508
558
569
444
486
498
617
473
482
522
598
506
457
498
568
553
468
480
500
599
503
478
508
607
512
473
495
551
594
454
476
499
640
495
478
515
604
546
427
541
537
602
458
484
490
592
505
472
518
596
525
449
524
533
589
493
466
490
617
495
473
494
604
527
445
503
538
613
452
489
492
596
478
469
513
608
542
450
494
517
630
455
504
491
614
490
469
495
606
543
448
503
531
614
457
477
493
602
498
463
498
595
568
449
493
559
598
456
486
505
607
503
466
499
618
535
460
495
521
611
451
490
503
619
497
453
509
592
546
449
492
526
617
458
484
513
601
505
459
503
613
558
446
485
523
600
455
494
519
608
485
457
504
592
565
445
492
507
622
445
485
523
613
497
449
498
576
572
443
483
503
678
446
486
508
634
490
452
510
572
560
438
487
514
619
487
487
511
607
496
446
495
600
568
447
495
502
580
479
481
506
619
501
458
498
555
614
445
486
509
604
480
462
508
619
499
463
494
555
575
445
486
503
597
487
481
499
639
504
458
494
555
609
444
491
494
597
500
495
507
604
518
450
497
549
592
449
487
491
611
505
476
510
616
518
458
497
546
592
478
473
496
616
501
470
493
608
566
445
514
525
597
455
477
499
606
489
477
515
613
537
460
502
554
557
474
477
492
613
484
463
501
606
547
461
498
532
593
463
488
498
617
491
469
506
614
546
440
496
521
594
459
486
506
613
494
472
500
618
557
447
494
526
609
460
499
511
619
498
466
500
581
559
448
505
520
610
465
488
510
613
491
465
508
584
552
441
496
523
618
457
484
522
617
491
467
504
573
565
444
495
506
636
464
480
514
621
494
459
503
568
560
433
496
506
613
466
483
515
624
497
460
507
575
562
447
492
504
624
467
478
537
614
494
461
499
585
556
445
496
503
644
466
499
491
615
511
455
498
577
582
455
485
501
600
461
480
509
618
502
458
507
562
578
439
484
498
613
488
482
501
640
496
449
502
569
594
436
491
493
609
497
482
511
611
523
456
496
562
598
450
508
488
613
496
466
503
605
516
459
507
555
585
443
482
497
608
501
480
507
606
528
454
499
548
606
456
480
503
609
504
478
500
618
526
453
507
541
605
452
509
481
604
490
477
502
612
536
454
497
539
596
462
474
494
581
489
471
506
610
539
461
507
534
599
444
490
499
612
506
467
502
599
546
473
497
531
610
456
488
520
639
497
466
506
588
550
455
501
520
610
456
483
529
608
492
467
500
599
550
452
496
513
613
460
486
514
623
474
455
506
591
554
442
489
512
627
459
493
512
614
494
461
507
580
566
438
499
510
627
461
490
516
623
494
445
511
569
562
442
493
510
627
458
483
500
630
494
458
505
572
561
441
489
509
621
476
479
521
614
496
479
499
568
567
443
495
506
619
464
482
504
627
503
450
501
565
580
442
482
503
613
474
478
501
620
508
451
484
569
580
452
487
501
605
475
483
510
616
511
452
507
570
573
449
484
500
603
489
472
507
612
520
463
532
543
588
450
484
497
575
507
476
507
608
519
456
494
551
587
451
486
493
603
495
486
505
613
516
457
497
563
590
452
486
486
601
499
480
504
622
521
450
496
548
591
460
488
491
610
493
475
514
612
520
449
496
542
558
457
488
488
611
482
470
503
601
538
454
494
543
599
455
490
500
613
489
478
501
597
542
446
504
533
631
451
486
505
609
490
472
507
584
549
445
495
531
609
464
486
514
617
485
473
503
592
548
449
500
523
612
445
476
528
613
493
465
503
588
556
440
497
520
619
458
477
526
631
492
464
499
600
557
447
498
511
621
462
469
525
618
490
455
498
586
562
451
493
514
631
453
479
516
606
506
465
506
580
565
440
496
500
629
461
499
514
617
497
458
506
582
560
449
494
496
622
462
479
510
611
499
466
500
569
565
449
496
504
617
468
476
501
611
502
458
498
566
570
438
491
503
608
477
479
511
618
503
458
502
562
567
451
484
499
607
495
470
529
601
516
453
502
565
574
451
487
499
589
483
482
506
622
521
453
504
558
579
452
479
494
608
497
481
510
621
513
457
503
552
593
455
484
496
610
499
477
505
607
528
450
504
552
582
461
481
492
611
496
474
508
616
529
449
500
549
584
458
485
493
611
485
469
498
612
535
453
509
542
598
459
487
488
615
489
473
504
602
579
437
509
533
602
455
481
497
613
498
476
498
613
540
448
501
535
601
462
483
498
602
488
466
503
598
546
441
492
529
601
457
485
506
625
495
476
510
595
555
450
497
522
609
452
490
511
620
490
463
505
575
558
450
478
520
612
464
480
511
616
507
460
502
581
547
457
492
520
622
463
482
515
619
495
457
512
583
556
450
489
513
620
463
481
514
617
495
468
501
580
557
452
500
520
615
462
486
513
620
498
463
498
574
565
442
492
503
617
474
480
511
619
498
459
503
577
568
446
488
511
613
473
481
505
619
497
468
497
566
566
447
491
507
621
462
481
511
615
501
454
499
569
577
452
485
508
588
505
476
502
632
505
468
500
562
573
448
489
499
610
483
476
511
621
503
454
504
568
575
453
488
490
611
499
475
508
624
516
455
495
562
582
448
485
498
613
496
476
507
613
518
464
501
556
582
456
479
504
613
495
475
508
611
530
454
507
556
586
480
487
493
616
525
467
501
610
530
447
503
551
595
464
482
494
602
489
475
508
598
535
450
505
550
589
465
490
491
611
486
465
501
608
534
444
499
544
604
465
489
487
616
487
476
499
603
540
451
503
536
595
463
484
497
614
486
473
496
594
543
449
496
528
602
464
490
502
617
494
469
500
585
548
444
498
525
617
458
484
505
615
496
469
521
582
554
429
489
522
613
456
483
515
612
494
464
500
599
552
447
496
517
618
454
486
524
626
490
463
504
563
557
446
484
511
626
460
492
516
603
498
461
505
579
577
439
496
510
627
459
483
520
614
496
459
508
620
549
449
490
508
630
453
489
518
621
499
458
507
574
564
450
489
516
627
462
487
504
613
493
455
505
570
600
442
491
509
617
465
484
508
626
494
455
502
563
574
446
490
505
619
474
484
509
631
502
449
505
558
584
434
491
507
609
473
491
503
616
513
447
504
561
571
448
485
499
597
493
483
511
616
505
455
502
562
564
441
487
506
585
500
476
503
613
511
461
499
562
576
448
485
497
603
500
481
508
616
519
458
497
555
590
452
480
486
606
497
479
504
612
522
456
501
553
591
453
489
492
596
502
472
515
619
520
452
499
556
588
459
481
508
602
498
477
511
611
531
453
502
541
599
458
484
486
609
492
476
515
614
521
452
504
550
599
461
492
494
665
470
477
508
611
536
458
497
535
598
461
490
492
618
481
473
499
590
544
450
499
531
602
462
487
498
598
491
472
503
597
554
456
500
532
603
450
486
498
610
489
462
508
597
544
442
498
529
604
462
490
512
607
497
461
502
592
557
442
492
524
612
462
490
513
609
499
467
503
598
545
451
492
517
624
456
486
511
617
505
452
497
593
555
445
499
515
625
462
480
518
604
509
464
504
584
550
461
493
510
619
460
487
523
616
498
478
490
584
558
440
491
508
627
469
481
506
615
495
463
504
588
556
449
494
493
627
456
464
521
633
494
462
497
565
571
446
490
505
619
469
487
507
614
500
455
508
568
560
441
490
506
619
475
484
505
623
503
460
513
568
570
435
492
496
621
474
477
511
621
507
453
507
560
568
446
478
511
609
488
481
505
620
505
463
508
559
582
452
487
505
622
487
480
503
627
506
457
500
568
586
445
487
499
599
498
484
520
621
512
458
508
570
582
452
485
495
607
502
490
512
616
511
455
502
550
590
456
480
497
606
501
473
500
611
507
454
500
553
563
470
480
500
593
490
476
500
610
519
454
500
551
604
457
486
488
611
493
476
511
616
529
453
499
540
660
399
480
494
608
478
468
506
633
527
449
502
530
604
458
494
487
604
485
474
503
617
540
450
495
542
590
502
478
496
621
482
463
501
575
562
446
496
536
598
455
491
495
612
487
446
496
606
543
455
496
535
604
460
457
502
614
490
466
509
595
561
450
497
509
611
461
485
513
619
495
469
502
582
554
435
498
518
616
460
522
510
610
496
466
493
581
565
448
505
521
607
459
482
512
620
496
466
499
604
557
446
493
513
615
462
479
508
622
494
467
501
600
553
442
498
517
617
462
478
524
628
496
465
500
588
560
439
495
515
632
460
482
529
607
500
459
494
578
552
449
495
511
625
461
482
514
606
502
457
507
578
559
449
493
508
615
474
481
511
633
494
456
500
568
563
446
491
509
624
477
483
515
618
503
458
502
566
565
443
486
505
619
466
481
516
615
483
452
509
571
563
438
491
497
620
481
480
507
619
499
462
503
570
564
440
486
502
625
482
480
518
609
533
446
503
560
569
446
491
505
598
492
481
509
618
512
455
501
554
572
450
486
499
617
498
475
510
619
515
470
500
563
574
455
481
495
611
507
473
509
625
515
456
504
549
583
457
484
496
610
498
475
504
620
513
452
493
554
601
456
486
496
605
504
484
505
613
529
446
506
546
608
456
493
490
602
494
477
506
616
529
450
523
538
597
458
482
492
600
493
472
509
614
536
456
500
537
601
462
488
490
618
487
470
505
611
538
452
497
551
603
456
483
492
622
485
485
507
594
541
452
502
533
600
459
493
485
629
484
469
509
600
545
452
494
540
584
458
489
496
618
490
472
502
600
542
445
493
528
598
466
486
510
618
494
473
503
600
537
457
499
531
625
456
486
507
612
493
471
505
597
549
440
499
531
607
457
481
515
619
493
470
502
602
553
447
504
522
601
452
482
519
618
494
465
502
589
558
444
499
518
621
457
488
517
623
492
460
501
585
561
446
499
516
614
486
472
518
616
495
457
500
590
560
450
494
506
626
463
488
525
616
495
460
498
584
558
435
501
507
630
459
492
503
623
492
457
503
575
567
448
493
514
624
465
483
514
620
504
460
506
574
573
444
487
506
623
473
478
500
617
500
462
498
572
569
450
489
505
614
476
482
515
610
502
455
504
563
582
443
491
501
613
472
483
537
606
505
462
503
564
550
449
491
503
616
477
479
508
609
504
454
502
563
571
446
490
501
608
488
479
511
594
534
456
503
561
585
444
488
493
621
487
483
508
614
507
454
497
569
580
448
484
496
612
494
477
504
615
495
452
505
557
591
456
481
498
608
499
475
508
611
510
455
502
557
587
452
488
495
610
492
477
501
617
541
453
499
544
582
447
487
483
605
489
476
507
612
517
456
508
546
606
451
483
491
602
488
475
505
617
530
461
497
547
600
457
486
490
616
494
454
511
618
528
452
500
548
599
458
480
492
616
491
477
510
608
532
452
496
540
597
451
493
495
614
493
474
505
600
539
453
489
548
584
458
489
492
618
492
471
506
601
541
448
499
535
600
462
487
496
617
492
462
509
603
545
453
497
540
592
456
486
503
607
492
472
507
586
553
447
490
525
613
463
489
508
610
490
470
505
596
538
458
497
527
611
463
485
502
618
506
464
506
602
545
436
489
515
610
468
486
519
623
485
469
497
583
566
437
493
520
624
457
488
515
618
473
467
506
572
552
439
497
526
628
449
484
519
609
502
456
500
616
561
445
494
535
618
458
485
515
614
496
462
503
588
559
449
495
506
618
446
490
518
617
498
460
502
581
562
441
493
511
629
464
480
520
616
492
455
508
571
592
445
492
507
626
476
480
509
620
495
451
501
577
562
444
496
505
620
469
483
512
611
493
459
502
571
560
444
488
500
626
475
463
516
623
490
463
502
569
577
436
509
504
613
467
479
507
622
500
453
502
564
576
444
485
503
611
479
501
511
614
503
452
509
541
587
448
488
515
618
484
479
513
613
506
449
503
562
583
444
491
499
612
495
482
529
606
507
449
502
567
578
452
485
501
601
491
472
509
614
502
459
501
562
588
447
486
499
606
492
478
506
592
516
458
500
561
576
454
487
494
601
497
472
506
616
526
455
504
544
596
434
489
489
597
497
486
509
652
502
450
497
554
588
458
490
495
613
496
476
501
617
524
454
499
553
595
447
492
492
605
499
473
508
602
497
449
509
554
592
452
485
490
608
496
472
510
613
531
451
496
553
595
457
479
493
613
490
467
507
599
532
444
492
545
596
468
479
490
614
488
473
503
607
537
457
502
533
591
460
487
488
612
489
466
506
597
539
466
489
542
595
461
477
493
617
476
482
503
593
544
454
496
530
601
457
485
498
614
482
473
506
592
541
448
485
534
597
460
477
503
612
494
469
499
591
541
447
497
531
587
467
481
504
622
489
474
500
597
553
446
530
538
610
460
478
504
614
494
476
506
592
564
448
500
528
583
462
489
507
623
492
476
497
602
555
444
497
545
612
458
484
516
615
493
468
500
591
551
455
509
502
620
457
475
513
619
493
467
506
589
552
447
495
516
628
460
487
516
602
490
271
527
555
551
444
507
531
648
465
505
519
635
502
481
527
568
535
422
499
511
673
447
483
501
606
495
452
506
583
610
425
500
516
624
433
472
507
610
497
462
511
585
551
457
486
522
618
447
480
510
614
494
458
508
590
588
437
495
509
628
461
481
513
620
488
458
503
575
563
438
494
504
623
459
477
514
622
505
462
508
561
578
431
490
504
617
473
481
513
618
492
455
441
547
556
418
498
533
644
503
502
490
737
501
475
516
564
545
406
473
505
622
472
479
502
632
495
459
495
562
561
440
488
508
618
476
477
494
619
502
460
496
551
578
447
486
508
611
468
477
506
615
495
455
498
563
561
443
488
495
607
486
480
550
596
504
453
497
565
576
450
490
505
612
478
455
523
619
495
456
482
558
594
444
492
500
615
487
474
505
637
507
450
437
547
552
427
488
524
636
507
481
518
749
516
480
522
582
552
428
465
491
601
501
469
502
598
485
457
499
563
574
445
492
501
600
499
474
504
618
506
451
507
562
555
456
483
501
609
502
479
504
620
549
449
504
558
579
447
474
509
600
505
476
509
620
507
455
495
555
597
460
473
504
600
500
472
505
614
511
435
497
561
587
456
478
491
605
495
481
503
619
513
457
422
548
572
462
474
516
637
508
486
514
766
533
473
515
556
569
413
466
484
604
495
473
498
599
522
452
501
545
595
453
483
491
603
498
469
500
626
518
462
523
541
554
458
479
483
601
486
474
512
612
537
453
498
539
604
455
487
489
617
487
465
506
616
533
450
495
523
603
446
494
479
618
485
471
508
608
529
451
496
539
609
451
479
492
610
483
472
506
596
531
448
495
573
604
448
484
491
610
485
473
511
623
537
457
491
535
608
463
490
495
612
488
466
499
607
542
457
500
537
618
450
485
498
617
490
472
509
597
547
455
498
530
617
455
489
498
615
490
469
507
595
553
449
507
526
603
466
468
503
606
485
464
502
592
560
450
488
526
603
461
487
505
619
496
469
507
612
545
446
499
528
605
476
482
509
609
495
466
502
582
552
435
492
524
623
456
501
519
622
490
472
503
567
539
437
498
517
618
462
477
511
619
492
458
494
584
554
450
496
525
618
456
499
516
615
490
463
505
589
556
452
499
520
620
455
489
505
604
494
463
503
585
557
442
496
517
614
454
485
524
618
496
467
502
590
554
447
493
530
613
460
485
538
584
505
454
501
587
552
451
486
510
616
456
487
516
623
490
457
503
586
559
450
492
513
626
459
487
519
603
494
471
501
570
560
445
496
519
625
455
489
511
614
498
457
504
579
567
441
498
519
633
459
478
516
656
499
446
520
582
554
444
490
518
632
468
477
514
627
496
458
502
579
566
440
491
517
632
465
477
507
621
504
452
501
577
569
439
495
510
624
459
483
508
617
492
460
505
570
575
442
487
511
609
467
486
512
612
496
466
502
567
572
438
485
505
627
459
486
508
618
502
462
506
560
569
437
493
504
627
469
483
505
618
501
468
499
569
559
448
487
503
620
469
483
509
619
496
462
506
568
567
440
487
500
637
468
481
504
623
501
454
493
567
574
440
492
505
617
467
484
512
621
499
455
504
566
574
435
496
493
614
463
474
505
611
503
460
496
566
573
459
471
495
616
477
478
514
620
500
456
498
569
572
443
487
505
621
479
475
509
623
495
461
503
564
570
449
495
495
588
473
481
510
625
503
460
496
556
573
446
485
490
608
485
485
502
613
506
452
509
561
580
435
484
501
610
476
477
507
621
511
461
505
566
570
449
477
509
600
484
483
509
618
506
451
500
556
585
447
480
505
601
490
481
505
615
505
455
504
550
591
448
485
498
583
490
477
504
622
506
460
502
561
580
451
489
497
603
500
475
520
623
507
455
506
555
586
445
470
520
600
499
478
509
615
521
459
503
558
583
445
485
500
602
507
478
501
622
510
453
492
558
574
444
484
500
620
511
477
509
606
512
454
496
551
577
452
485
500
592
502
474
513
617
504
461
499
557
588
446
492
492
601
501
476
507
618
513
458
505
547
590
455
480
498
604
499
500
518
620
521
442
501
552
580
470
478
520
601
515
476
507
618
527
454
493
552
576
456
488
501
595
526
475
507
614
518
457
496
558
592
453
503
488
618
492
477
504
617
522
458
500
553
590
458
483
491
619
498
479
500
605
527
448
499
552
584
459
483
494
601
495
480
512
602
523
454
503
542
590
459
482
496
600
479
475
507
608
538
453
502
548
590
467
478
500
616
494
474
506
600
517
452
496
551
593
454
486
487
609
518
476
500
622
520
452
509
550
599
461
493
492
602
499
471
506
588
527
439
496
526
601
469
478
509
601
481
474
500
600
522
457
500
548
593
455
476
474
600
492
466
507
599
516
458
499
540
614
455
482
484
638
488
497
503
614
535
452
506
539
594
454
484
493
610
486
485
503
595
542
454
510
547
604
460
483
492
611
486
468
508
609
531
452
496
544
599
457
484
487
622
488
468
504
597
539
450
494
547
592
459
483
492
619
490
478
503
602
533
472
502
539
617
449
483
494
622
495
472
509
594
544
446
507
531
593
466
489
492
612
491
460
514
601
542
450
504
529
614
454
489
496
618
492
478
504
590
527
452
487
539
595
467
483
495
614
490
469
510
586
561
441
503
536
598
459
481
500
614
489
476
508
585
532
442
495
539
595
459
481
498
613
487
476
500
595
554
430
486
510
605
454
489
507
620
486
481
503
596
543
449
501
527
607
459
478
498
620
489
465
503
602
551
471
501
540
600
460
484
495
608
488
468
512
612
532
456
503
526
605
463
484
508
603
491
467
499
600
549
455
503
532
609
462
489
503
608
493
471
503
600
547
441
498
521
606
465
489
506
610
490
469
504
595
555
454
498
533
590
461
485
503
619
495
464
509
596
549
456
504
529
610
460
485
503
621
489
468
503
589
552
445
493
557
601
456
488
504
609
499
463
510
593
550
448
497
526
612
463
484
510
613
494
467
502
591
550
443
492
526
605
456
489
514
612
490
463
504
584
546
440
503
528
609
465
488
508
611
490
471
501
583
550
442
502
531
607
463
486
513
623
489
466
505
591
563
443
497
522
610
456
480
521
620
491
470
504
591
546
445
500
525
622
464
483
513
622
503
464
504
594
552
447
499
518
612
460
485
531
611
499
463
506
600
554
442
504
522
611
464
477
515
620
492
462
506
590
553
448
497
513
628
459
484
526
615
498
467
494
602
550
445
488
520
616
459
510
512
610
497
468
500
595
545
449
496
518
624
457
480
516
611
500
462
501
594
552
453
497
520
607
460
480
532
617
492
466
492
576
547
447
494
520
616
452
485
524
607
495
466
501
592
555
448
507
519
617
457
493
509
592
488
464
510
592
551
441
504
516
614
455
488
514
608
503
460
509
601
551
445
496
519
620
460
492
519
650
488
455
513
580
550
449
498
532
618
456
485
525
619
488
462
508
585
552
447
496
526
625
458
484
520
609
474
465
502
584
564
444
498
519
614
461
481
513
622
493
462
507
580
554
451
496
516
623
456
484
518
619
498
457
504
596
544
448
498
517
612
460
487
524
619
489
464
499
587
570
444
495
520
614
459
482
523
625
491
475
505
591
547
443
486
507
620
463
490
528
613
495
462
494
595
559
440
500
513
624
468
484
514
619
490
464
486
586
559
441
490
511
623
462
480
512
617
492
466
509
594
555
446
503
507
624
464
478
524
618
497
463
535
571
557
451
493
513
617
455
486
522
618
496
458
500
587
561
455
491
512
621
456
487
518
617
499
462
505
616
554
450
492
508
615
455
484
521
618
492
459
502
589
555
445
498
521
626
458
491
513
612
492
468
510
584
569
436
497
510
611
459
482
522
620
493
454
506
582
552
446
495
517
621
440
488
514
586
496
458
502
579
604
439
490
516
619
459
484
513
625
498
458
500
579
559
448
493
531
618
457
486
515
623
496
458
509
591
568
456
489
514
626
461
485
517
628
500
466
503
580
563
446
489
518
615
464
485
516
619
497
465
504
582
564
442
487
512
617
461
481
530
651
496
445
490
578
554
433
488
534
621
465
491
520
618
491
466
502
591
562
442
514
522
617
464
486
516
614
499
468
503
605
548
442
493
516
628
456
484
516
613
493
463
497
590
559
440
501
494
629
466
479
522
611
497
463
498
591
554
433
498
524
625
461
488
511
606
498
460
509
589
557
454
505
545
625
436
488
513
612
498
457
503
603
553
447
494
510
624
460
480
523
617
497
465
498
599
556
446
496
513
632
452
486
517
619
493
456
505
631
553
433
496
519
614
457
487
518
620
494
460
503
583
563
437
486
527
621
443
483
527
616
492
453
506
586
556
441
495
511
642
451
479
516
617
492
465
503
585
549
432
494
514
615
475
477
518
624
494
457
502
598
560
449
495
517
624
458
479
513
608
486
463
508
584
571
452
494
517
616
453
498
501
624
497
453
500
582
563
446
502
530
617
460
487
509
620
489
454
509
577
561
459
489
517
614
457
487
511
622
492
461
507
583
558
446
501
516
618
463
481
515
618
499
464
498
581
564
431
499
519
618
458
484
538
614
491
468
494
593
552
441
504
518
620
454
486
519
623
494
469
501
595
559
441
497
521
622
444
487
521
579
491
466
491
599
569
446
498
508
612
453
486
517
640
489
461
497
590
546
441
496
518
623
465
485
520
645
492
464
502
590
548
441
497
514
633
457
486
515
616
491
463
506
594
550
451
499
518
617
461
486
524
615
494
462
500
600
551
450
492
520
617
447
490
517
611
490
467
504
604
547
445
500
518
619
458
487
503
624
491
462
506
593
550
443
493
528
633
454
482
507
616
493
460
515
579
557
443
500
526
613
449
488
513
624
491
466
507
590
553
452
491
526
616
451
484
512
620
491
463
507
600
554
441
501
532
608
451
490
512
626
490
470
498
594
559
447
503
524
623
459
490
508
618
495
467
499
602
550
437
502
523
618
461
490
510
610
492
469
507
589
555
448
493
527
607
463
486
533
609
492
486
498
593
548
446
498
531
611
457
484
513
599
492
466
507
613
543
460
500
520
611
445
487
505
619
492
472
504
582
544
435
501
526
603
461
487
512
618
496
468
497
593
536
443
499
532
594
461
479
520
617
494
475
503
596
554
445
497
534
596
460
480
515
615
488
471
503
600
571
451
497
532
603
457
482
507
631
502
473
503
606
541
445
499
535
606
458
488
501
611
491
471
504
600
551
459
489
530
605
451
485
500
614
500
472
505
612
546
444
500
531
598
457
491
502
605
491
468
509
607
543
453
484
537
607
452
487
495
620
491
463
512
602
538
446
497
540
601
458
485
495
618
490
471
505
608
551
446
508
536
598
454
483
496
620
492
479
503
599
550
449
492
545
600
446
487
491
614
487
470
505
611
546
450
496
546
612
459
489
489
614
490
471
502
607
537
449
501
539
595
461
484
493
613
487
475
507
600
539
449
491
546
584
463
484
491
616
488
469
508
604
534
447
499
531
590
465
483
482
616
487
476
505
599
537
446
498
545
619
448
491
487
604
488
474
500
612
533
452
502
541
605
461
484
494
608
494
472
508
608
538
452
501
543
597
449
485
489
608
487
474
507
612
533
457
500
549
597
466
479
494
613
493
475
502
616
515
448
497
545
597
476
480
488
616
494
471
497
616
534
456
496
548
609
451
479
495
603
484
474
515
601
517
452
498
554
600
457
499
481
620
494
474
513
611
527
458
497
547
582
455
475
493
594
494
472
506
612
518
454
503
552
594
460
481
487
600
499
471
497
625
516
455
498
547
592
450
484
495
604
504
476
507
613
512
455
501
556
585
456
478
508
607
497
476
514
625
518
451
506
543
619
453
490
475
604
497
467
504
612
521
456
499
557
578
457
480
497
612
498
471
508
602
522
442
503
565
580
445
487
493
616
502
479
512
609
510
454
504
558
575
479
489
497
611
477
474
503
608
515
459
497
565
575
453
487
498
608
490
484
507
611
512
453
503
561
566
447
482
500
609
506
478
505
623
508
450
501
560
580
443
487
496
613
486
478
502
620
511
455
504
563
568
447
481
501
609
494
472
508
628
502
456
497
561
575
455
485
501
609
484
480
500
617
506
455
501
561
583
445
484
504
608
488
504
499
624
503
442
503
564
580
442
491
501
611
479
476
505
620
522
456
503
563
580
442
483
508
611
499
475
523
565
504
456
495
564
600
444
496
504
611
474
484
505
606
500
447
501
564
571
440
488
508
621
472
478
512
594
505
458
502
566
569
444
494
503
618
466
477
515
629
500
452
502
560
565
439
491
508
622
462
475
508
650
497
456
501
577
559
440
490
510
615
491
475
513
621
500
457
503
591
555
440
496
503
641
463
483
509
618
480
454
501
575
562
439
490
507
635
460
480
511
620
500
459
501
572
581
441
487
506
623
453
478
510
609
504
441
490
578
563
430
504
516
625
461
481
504
618
500
456
506
582
554
443
489
519
657
453
485
510
625
490
471
510
578
559
440
482
507
623
458
489
519
633
484
456
504
587
562
447
496
520
621
463
486
508
618
491
458
491
584
566
441
494
516
616
456
488
519
621
492
466
507
586
557
439
496
512
610
466
488
507
623
490
468
540
585
560
445
495
520
614
457
494
511
614
494
468
506
594
552
439
499
529
607
466
488
516
621
485
470
507
614
551
449
501
518
609
461
487
509
629
490
477
507
590
550
443
500
523
616
452
482
525
617
495
456
498
587
558
437
496
532
602
449
483
509
616
494
469
504
588
552
442
495
525
613
458
491
507
611
486
470
498
620
576
441
498
533
622
459
480
500
622
491
468
499
608
542
454
501
530
604
460
483
500
611
491
473
505
614
538
433
495
531
607
458
484
496
616
489
473
509
605
524
448
504
544
600
475
483
498
599
488
456
503
567
531
455
497
534
601
455
482
496
605
497
467
503
611
527
455
496
545
596
460
480
495
609
489
472
505
614
520
454
507
534
597
451
481
486
610
493
470
521
611
519
457
497
550
596
457
481
487
611
491
465
508
616
522
452
500
531
587
461
477
491
615
491
479
513
609
521
451
501
553
585
455
482
487
618
495
476
511
606
523
449
500
589
577
459
482
489
597
500
478
511
616
510
451
503
557
583
452
471
498
604
497
477
506
613
503
450
504
558
599
444
489
499
593
505
468
508
615
512
451
506
558
578
449
483
501
607
499
479
507
619
514
449
508
560
573
452
480
505
610
464
474
507
617
517
459
500
556
582
442
486
501
611
480
478
505
618
508
456
505
555
583
465
485
504
607
482
479
507
623
501
454
510
556
578
441
485
503
613
468
479
505
623
498
457
504
564
577
443
475
503
609
471
476
507
623
497
460
498
567
573
438
487
509
612
474
484
507
601
496
457
503
571
567
438
497
497
621
468
475
505
623
498
466
501
573
567
438
495
505
628
460
482
509
628
494
460
499
573
564
439
498
524
609
455
484
510
620
491
457
500
579
572
438
493
506
637
459
482
520
621
489
461
502
577
559
440
493
513
607
467
480
515
617
498
452
512
588
565
446
493
509
631
457
490
518
617
496
467
504
593
559
444
500
511
638
450
483
515
616
496
464
496
591
560
448
497
514
613
462
483
517
619
497
473
502
590
560
451
495
519
617
470
484
507
620
490
460
503
601
552
445
497
529
614
453
486
515
623
492
470
501
596
543
454
492
527
608
457
483
504
618
489
470
499
590
562
448
494
526
606
458
486
507
643
495
469
507
600
539
448
497
531
597
461
488
500
611
497
466
512
595
546
449
504
534
599
463
484
502
611
491
469
505
593
536
446
499
541
598
463
485
492
616
488
474
504
604
543
449
492
541
599
460
486
492
611
483
480
495
608
534
450
500
541
597
461
482
488
612
483
472
507
608
534
450
504
542
593
460
482
489
614
490
476
508
612
532
442
500
554
592
455
483
491
616
487
471
504
660
526
454
493
544
590
459
484
496
608
499
468
510
618
524
455
499
548
596
454
482
499
599
494
476
502
597
516
445
497
550
593
453
482
490
601
497
476
505
617
509
454
505
563
587
451
477
502
601
525
472
504
615
505
457
499
559
584
447
484
494
612
523
472
503
615
512
449
498
558
580
450
482
501
604
503
484
504
618
504
459
498
557
571
448
491
506
608
491
478
503
620
506
454
502
558
594
440
489
504
609
476
477
503
622
503
454
501
568
574
441
492
501
629
470
484
516
622
500
465
501
573
557
449
488
495
615
468
478
534
619
496
456
501
569
563
443
492
503
625
465
490
509
615
497
453
503
570
566
444
490
500
628
459
478
506
606
493
453
505
568
570
446
491
507
624
458
483
509
626
499
457
505
574
561
444
493
507
628
460
479
510
627
484
455
502
576
561
444
487
516
627
459
484
509
625
495
460
505
579
565
445
494
516
621
457
481
509
624
512
465
508
579
557
436
486
508
616
463
491
514
612
486
462
504
588
562
439
499
514
619
460
486
517
615
494
450
504
581
517
436
483
521
611
470
484
505
622
493
473
502
591
549
439
501
531
615
458
487
504
618
489
491
492
585
572
436
496
526
608
460
486
508
624
492
468
501
590
548
445
499
528
599
465
482
506
619
489
465
508
589
551
442
498
539
603
458
488
495
605
492
471
501
611
543
448
491
536
610
455
487
499
611
488
471
500
605
535
422
492
541
620
452
481
492
613
489
467
496
625
535
448
501
544
605
454
483
488
617
487
475
506
640
521
455
499
540
596
455
473
491
616
486
471
499
614
519
454
500
549
596
476
488
483
608
501
469
505
623
504
445
502
542
582
452
485
496
587
495
480
507
605
516
450
498
557
585
457
482
493
614
501
470
505
618
519
447
498
559
575
458
483
502
613
497
479
506
609
513
456
499
562
577
447
485
503
610
495
478
511
609
507
473
493
560
575
450
468
501
608
485
475
510
616
507
458
504
565
567
451
486
499
603
484
479
506
623
505
454
493
566
571
441
486
504
614
473
487
512
613
497
449
511
558
580
443
491
506
617
466
482
513
618
503
452
535
552
568
441
488
502
619
463
480
509
617
497
448
504
574
568
444
486
506
624
460
481
509
627
496
459
503
589
564
448
487
503
625
466
483
513
624
500
457
501
580
566
443
497
502
615
459
484
508
624
500
454
507
573
548
443
497
513
611
459
489
519
609
495
461
507
569
561
440
497
513
617
469
481
509
621
491
458
501
590
598
433
498
518
617
461
479
512
618
495
462
499
582
550
450
501
520
615
462
484
517
618
493
468
502
585
552
456
487
528
619
453
475
524
615
495
469
502
588
549
445
496
528
608
458
481
518
617
491
467
496
594
553
449
492
526
606
452
486
507
616
493
469
500
594
544
450
498
534
605
464
482
510
613
494
471
501
604
539
437
523
528
603
455
486
495
617
490
482
503
595
544
451
498
537
600
456
489
497
603
490
469
507
605
537
453
497
522
598
459
483
489
613
489
474
505
606
532
451
501
546
595
459
483
487
612
488
479
505
603
534
451
492
595
587
457
480
488
608
494
479
512
601
527
460
502
553
594
457
473
485
611
496
474
505
607
526
455
499
554
594
449
492
490
609
496
477
509
612
518
454
500
558
583
459
482
495
605
493
474
512
602
538
455
498
560
572
446
479
497
603
499
473
508
612
507
451
499
560
571
449
484
500
597
503
477
508
620
509
459
502
572
568
468
480
503
600
486
478
504
610
506
452
504
560
574
447
492
500
610
487
477
508
614
504
453
513
557
572
445
503
493
623
473
478
503
619
501
456
505
571
560
442
486
511
620
471
478
512
623
496
461
506
567
573
447
494
508
619
463
482
505
622
502
459
507
569
568
448
486
509
620
463
489
509
620
500
455
505
572
572
440
499
529
618
462
481
508
619
493
459
506
581
566
445
488
518
621
471
475
516
616
492
464
504
577
557
445
492
511
577
464
484
509
613
491
465
505
577
559
444
497
514
616
463
480
510
624
492
462
506
579
553
438
497
525
651
447
489
518
608
494
462
501
589
552
439
496
514
618
456
479
523
615
498
467
499
593
551
447
497
521
612
466
482
519
615
487
472
504
602
550
453
495
522
614
452
487
506
615
490
465
510
594
550
452
496
527
609
452
480
497
607
490
461
502
592
546
454
495
533
607
453
482
497
607
484
470
509
599
534
447
502
540
596
456
510
497
613
491
470
497
603
519
454
487
540
579
459
482
495
619
478
475
507
595
536
458
500
554
594
450
490
474
616
494
469
505
599
536
461
500
553
586
456
488
487
609
494
475
508
613
517
452
502
547
596
457
486
493
599
484
471
510
606
524
457
493
559
576
459
482
496
609
499
472
509
606
511
451
503
562
581
460
482
485
642
491
474
502
609
507
452
498
564
580
450
481
500
616
494
470
515
611
508
456
498
561
579
447
481
496
611
468
482
509
616
505
445
507
569
577
447
483
495
612
481
477
512
615
512
452
505
569
573
449
483
507
609
510
468
504
619
506
451
501
565
581
447
483
499
611
494
483
504
627
501
456
503
563
604
441
482
504
618
470
490
505
630
492
452
499
571
576
445
492
508
614
476
484
505
626
499
451
501
538
561
448
488
504
621
468
480
494
619
495
458
497
575
571
444
490
501
626
458
478
512
614
502
464
491
583
570
442
487
500
627
466
483
513
620
496
458
504
581
563
440
491
508
624
461
475
522
617
497
461
501
581
561
446
490
510
619
455
485
520
611
498
462
503
587
555
441
493
507
627
453
482
513
621
489
459
497
596
550
445
492
513
619
455
487
515
619
493
460
504
601
555
445
490
516
614
455
493
519
615
487
461
511
592
551
450
495
529
624
452
486
524
610
487
462
505
602
547
449
493
524
611
456
485
514
616
492
459
504
604
547
448
492
534
612
453
483
510
622
493
442
503
606
545
446
494
534
602
450
483
504
620
487
463
505
606
546
447
490
548
602
449
494
491
621
492
495
498
608
551
442
494
538
596
458
493
493
612
487
476
514
608
613
452
495
537
607
447
475
540
629
470
474
527
575
531
447
503
544
596
471
487
504
610
479
477
508
608
526
455
500
546
589
462
484
494
610
483
477
531
598
525
443
504
546
597
461
477
490
616
487
482
502
606
541
444
500
557
590
457
484
491
610
487
470
506
649
513
449
500
556
561
455
481
501
608
493
475
513
597
514
449
502
557
586
456
482
501
603
508
477
506
629
487
449
497
547
559
456
491
502
606
494
482
507
612
506
449
494
567
569
448
488
493
605
490
483
511
617
507
431
505
564
567
441
487
517
595
500
477
511
620
504
455
502
564
582
438
491
510
606
487
474
528
614
497
478
488
571
562
440
483
512
608
480
483
499
615
503
457
500
590
580
438
493
504
612
471
485
516
614
497
458
485
572
555
445
490
509
616
473
487
507
615
502
459
508
579
554
448
489
510
621
467
493
520
610
504
453
533
557
566
447
504
507
618
465
485
525
612
504
456
511
574
548
455
490
507
611
461
528
501
625
484
453
502
580
552
478
489
506
625
455
494
517
637
494
460
497
575
560
443
495
512
625
459
483
516
618
498
455
525
584
542
443
495
508
607
463
480
518
628
495
449
509
587
550
452
488
513
629
445
491
514
631
493
471
495
578
614
433
500
517
611
437
500
524
623
486
459
502
579
564
445
490
518
609
463
479
516
623
481
467
507
582
580
443
498
571
595
454
485
512
619
499
470
504
612
537
460
494
528
600
472
471
575
611
540
452
516
581
541
471
472
546
624
457
469
509
612
498
444
529
578
540
440
528
534
598
437
487
514
602
490
482
557
654
535
452
532
516
611
452
486
493
600
491
466
507
602
536
437
498
544
604
454
472
497
610
486
486
