CH1
450
342
498
678
580
330
428
569
648
380
382
555
715
444
344
492
681
580
328
423
570
649
390
384
560
714
446
341
495
679
582
328
427
571
654
391
378
558
716
449
343
496
679
581
333
427
566
652
393
384
573
710
444
342
496
679
580
332
432
565
651
388
382
568
713
430
343
496
676
579
338
430
567
648
390
381
571
711
469
344
496
678
578
334
428
566
650
393
381
546
713
459
337
497
680
578
326
433
565
650
382
388
562
713
431
338
502
679
580
330
430
564
646
389
384
557
715
470
342
487
684
580
330
425
567
649
393
377
557
715
500
342
500
681
579
329
422
563
651
392
382
567
716
476
340
498
684
581
329
428
563
648
390
382
560
713
463
337
480
682
580
333
430
560
649
391
379
552
711
475
341
495
679
583
330
427
565
648
392
386
554
716
471
340
495
679
583
329
425
560
648
391
378
558
718
451
342
497
680
580
330
428
565
647
392
381
556
718
465
343
508
680
580
330
430
564
648
390
382
558
715
471
340
500
682
560
328
431
564
649
391
383
561
719
452
340
498
685
580
334
427
561
654
393
381
561
720
461
337
495
684
579
328
426
565
650
391
383
559
716
467
334
503
684
601
327
422
563
652
390
384
558
717
471
337
495
687
559
330
422
566
651
390
384
567
717
462
336
509
683
579
335
425
563
654
390
379
553
719
471
337
495
687
578
335
427
566
650
394
387
552
718
469
337
502
686
594
334
427
564
650
392
385
555
719
470
337
503
685
560
330
427
565
651
392
385
562
716
454
338
507
683
584
327
422
565
651
391
380
554
722
455
340
494
688
579
339
423
568
648
393
384
553
724
470
341
511
685
579
333
427
571
658
393
381
554
724
467
338
496
686
557
335
424
567
648
396
386
558
720
457
342
510
682
579
334
426
567
647
398
384
557
721
451
338
496
685
574
325
429
568
652
391
385
556
718
467
340
508
686
573
332
430
569
654
397
385
557
720
466
340
493
685
562
324
428
569
647
387
384
560
720
458
341
490
686
569
331
430
575
647
393
380
556
718
473
338
481
685
567
332
434
575
649
388
389
563
714
450
340
508
686
573
325
437
577
652
388
389
561
712
455
340
499
687
567
325
423
580
641
384
394
573
713
445
337
509
688
572
328
448
589
637
363
397
572
706
446
343
506
694
538
327
445
603
628
363
405
584
704
420
346
523
701
549
326
458
605
629
361
404
583
702
425
343
525
705
534
324
454
610
623
357
405
588
705
420
345
534
705
518
322
464
619
624
356
409
593
685
405
342
537
710
515
320
469
626
620
344
412
594
705
396
350
537
715
532
322
468
630
620
346
412
593
708
404
346
537
718
514
311
481
628
622
342
412
599
702
394
347
543
722
502
304
484
643
622
326
411
612
706
381
343
553
726
479
303
482
653
609
307
424
615
707
373
350
556
730
490
302
495
657
603
301
437
629
687
344
347
568
736
474
304
494
669
597
307
436
639
690
336
356
572
736
462
308
507
675
594
294
439
639
686
330
357
577
737
457
299
507
678
588
290
440
649
689
326
354
581
739
450
301
517
683
588
275
445
653
685
315
358
581
738
453
305
510
679
587
278
441
642
686
333
360
574
734
463
306
504
665
598
292
435
639
686
342
352
562
728
477
305
504
657
603
296
431
627
685
352
352
561
731
475
308
500
662
604
291
433
620
687
351
351
568
730
472
309
501
663
601
291
437
624
699
342
356
568
730
468
302
505
665
600
292
433
625
685
339
355
565
729
470
307
502
666
615
289
439
618
684
344
356
566
730
471
308
507
669
605
290
438
625
684
342
358
574
729
463
313
508
674
595
282
442
634
682
324
358
584
733
455
305
514
686
592
275
452
638
684
316
360
585
737
444
297
519
686
595
266
452
644
685
306
361
599
738
435
298
525
689
585
255
452
659
684
297
364
602
744
431
297
530
703
578
259
458
658
682
292
364
605
741
425
299
534
709
581
255
457
658
682
292
364
606
742
426
294
538
705
578
261
455
656
681
294
367
605
734
423
303
536
689
583
264
455
652
678
302
367
600
734
437
308
527
685
582
269
455
647
679
309
369
599
731
444
312
525
681
594
283
451
635
681
323
366
584
720
456
317
526
677
604
283
451
633
679
329
368
584
717
456
317
523
672
605
286
448
627
679
333
364
580
717
465
319
511
676
608
291
441
630
677
334
368
574
721
464
310
507
672
618
292
448
624
684
333
367
576
723
478
312
505
666
626
289
439
621
684
339
356
576
719
487
318
486
660
643
291
439
617
685
361
358
557
724
503
325
482
640
677
298
419
603
690
372
346
550
729
523
326
477
624
696
301
413
590
698
384
337
536
723
539
326
468
608
685
304
409
583
702
389
333
536
721
535
332
465
606
688
308
404
582
697
393
336
535
718
540
324
466
605
731
309
410
583
700
395
336
537
718
544
336
469
608
715
307
407
583
696
396
331
535
720
555
335
469
600
688
316
408
580
692
395
336
535
725
535
341
462
596
689
308
406
578
700
400
330
533
723
544
334
479
597
686
321
405
577
697
401
339
528
725
540
333
468
603
685
309
407
586
695
394
339
552
729
542
315
468
607
679
316
409
581
693
390
335
533
730
542
310
469
605
672
320
406
577
695
399
341
526
729
544
305
471
605
682
315
404
574
703
401
339
530
723
569
311
469
606
677
310
404
574
703
401
337
526
730
548
317
466
611
672
319
406
568
702
396
340
533
728
541
311
471
616
666
314
402
569
695
396
333
550
733
538
320
467
616
660
310
406
577
685
412
339
526
732
534
314
469
620
657
312
409
560
688
402
337
538
733
530
311
465
626
653
320
406
557
686
410
338
537
736
528
324
464
631
650
320
406
562
683
391
335
533
736
526
315
462
636
649
323
407
559
684
392
344
532
736
522
316
468
638
639
324
405
562
683
407
343
532
731
514
322
468
639
638
320
399
553
686
407
344
531
735
512
319
469
645
633
321
400
537
684
407
345
535
733
510
322
467
653
633
321
400
546
683
388
346
530
733
504
324
468
649
631
321
399
535
684
407
351
541
734
500
321
469
659
628
332
402
538
678
407
353
539
731
500
322
472
668
630
323
393
525
684
409
347
537
732
494
325
467
670
628
324
391
537
681
396
351
533
736
488
319
469
670
625
326
390
527
676
412
355
535
733
486
322
475
677
621
323
392
535
678
417
357
537
738
482
323
472
679
615
329
397
534
675
408
361
536
736
481
322
474
683
619
329
397
535
673
413
359
539
736
479
319
470
686
612
323
402
545
672
409
366
538
735
479
323
471
684
606
323
405
549
674
396
363
543
742
474
321
476
684
603
328
410
546
673
371
359
542
735
471
320
474
685
598
326
412
555
676
373
366
534
736
468
315
475
687
600
325
414
567
674
354
372
547
732
463
316
479
688
594
327
422
578
672
361
369
548
733
456
319
484
686
597
325
425
569
675
345
373
545
730
456
320
487
688
591
336
428
573
682
354
373
544
729
452
319
486
686
592
333
431
574
683
334
377
547
729
442
319
489
687
588
338
439
583
685
339
379
548
728
435
319
494
685
583
338
437
584
685
329
381
552
728
435
316
493
684
580
342
438
585
693
329
381
567
725
437
323
496
685
585
339
435
582
706
334
381
548
721
432
322
500
685
582
353
440
581
722
326
384
551
721
427
316
500
684
579
350
439
585
724
325
380
542
719
425
321
508
690
577
350
446
578
720
324
389
559
717
424
324
514
692
578
338
444
575
719
326
386
548
716
420
326
511
709
571
342
450
577
720
316
398
564
711
416
326
511
716
571
345
448
578
718
316
398
561
711
413
324
511
722
566
340
455
581
709
318
399
559
704
428
326
519
726
565
337
460
589
695
315
401
578
699
406
328
529
728
561
324
460
596
688
311
397
563
702
402
328
527
730
554
326
463
594
682
321
406
567
707
402
331
531
731
550
313
461
602
679
325
400
560
692
393
328
531
734
547
310
463
612
668
318
401
555
690
407
334
529
736
543
315
462
622
661
323
401
554
690
406
338
532
737
532
317
466
628
655
316
404
574
689
407
339
532
736
527
315
464
639
648
314
401
557
693
392
347
532
734
521
320
467
642
642
331
393
545
689
423
341
531
738
513
319
469
650
638
326
396
533
685
415
348
529
734
507
320
466
656
638
323
393
539
685
430
346
531
738
501
322
466
665
633
326
392
523
681
432
354
534
737
494
323
466
673
630
335
389
531
680
409
352
534
741
488
321
473
680
623
328
395
541
674
427
352
538
731
482
319
470
685
614
327
393
532
677
404
363
540
737
478
314
470
687
609
331
402
546
671
395
359
543
727
478
314
476
684
601
329
407
544
668
390
361
553
746
473
317
474
683
596
313
417
559
673
368
371
550
735
461
316
480
686
595
328
420
571
675
345
373
549
731
458
315
482
686
592
331
428
557
677
351
366
563
736
442
327
492
685
586
333
432
582
681
344
380
538
724
443
318
495
686
580
341
439
584
685
344
380
550
722
435
326
499
686
576
343
447
591
685
323
386
541
718
429
324
503
684
576
333
440
591
688
328
392
550
717
419
328
508
688
571
350
449
585
698
329
396
558
718
417
327
514
687
568
352
448
585
704
320
395
558
715
412
327
514
696
565
353
450
584
710
323
393
563
708
417
329
512
700
572
342
457
589
709
322
385
571
704
408
327
513
711
558
327
456
588
694
313
392
584
698
401
329
520
720
551
335
459
589
686
321
401
573
701
404
335
524
726
545
329
469
597
682
324
403
571
686
405
332
528
732
548
316
466
603
674
324
405
574
699
381
342
532
730
540
319
467
606
663
328
406
557
685
409
338
529
724
521
319
464
618
648
316
394
544
689
413
334
533
731
521
318
468
633
645
322
401
567
684
398
345
534
736
510
324
472
644
635
316
401
541
683
407
353
532
732
505
324
471
651
625
321
388
544
680
389
347
524
731
498
332
469
658
627
331
395
548
671
406
342
538
725
489
314
467
667
616
330
398
530
677
419
360
540
732
479
321
472
678
617
317
397
528
672
400
355
546
735
480
330
473
683
613
327
401
538
667
415
358
545
729
466
316
465
685
595
323
409
542
668
410
368
524
723
468
323
482
685
590
328
413
552
660
375
367
542
727
459
317
476
687
588
318
423
569
668
359
370
560
729
453
320
491
687
582
317
428
567
673
349
383
531
720
441
305
485
681
589
326
437
580
676
340
384
561
712
439
317
497
688
578
334
443
585
683
328
396
557
719
431
321
500
686
571
342
450
585
685
332
385
546
711
438
320
502
685
566
349
447
583
689
317
389
562
705
441
326
502
689
563
350
463
564
690
317
401
546
692
403
297
556
692
557
343
452
584
705
310
406
544
701
395
323
530
708
559
346
460
576
702
315
401
572
688
383
327
524
714
558
348
449
575
702
307
393
558
706
416
318
529
716
557
322
463
591
684
320
401
562
691
401
333
530
726
545
319
461
599
674
315
404
563
686
395
330
532
728
546
318
470
606
667
307
398
553
689
396
333
547
727
537
318
466
626
647
313
396
560
687
408
338
548
735
520
312
471
629
635
329
380
559
684
406
341
524
731
518
317
485
647
636
314
399
549
676
403
354
537
752
509
321
457
651
623
316
386
536
684
411
366
527
712
482
324
464
658
621
332
402
548
678
406
350
534
726
460
319
475
672
623
337
403
524
668
409
355
536
737
482
327
484
685
610
326
402
530
660
410
370
544
748
479
322
467
683
596
309
403
544
667
404
379
566
718
462
316
476
683
586
333
417
579
670
386
381
548
720
461
308
471
686
590
334
428
551
666
374
369
544
721
459
325
504
686
582
318
431
567
663
329
376
553
756
453
323
479
685
578
327
423
575
685
342
397
543
690
435
318
498
675
575
342
442
612
685
325
375
563
712
412
314
513
683
581
363
443
557
685
318
391
539
720
422
330
549
687
574
329
450
578
686
319
395
551
774
432
327
500
685
566
339
440
577
719
328
419
569
671
392
328
512
685
564
352
460
614
719
325
388
552
705
406
321
517
718
568
350
462
557
695
316
381
548
704
399
338
549
727
539
305
455
583
683
313
404
584
755
415
336
502
724
512
318
457
596
682
320
424
575
668
374
334
521
726
530
299
477
656
672
319
373
575
685
393
324
533
744
542
332
460
600
647
294
394
559
689
406
347
561
749
515
299
461
637
636
298
404
571
736
418
343
515
740
491
303
478
650
640
308
415
550
655
401
338
504
736
493
325
491
685
637
314
381
529
681
384
341
532
747
494
320
467
658
651
316
382
529
681
418
355
554
744
489
305
462
683
640
316
387
529
704
423
361
526
740
476
305
459
682
639
316
409
544
652
405
355
553
736
471
313
475
716
593
318
390
550
674
393
353
529
747
466
319
478
682
585
310
400
558
678
374
362
566
744
461
301
481
687
589
314
424
576
712
340
365
540
735
442
303
484
684
592
329
444
580
658
326
373
530
726
459
310
493
727
600
329
408
575
687
321
369
572
733
433
315
499
680
582
336
436
572
715
324
382
568
735
428
291
499
686
577
333
451
587
755
327
381
527
722
412
306
504
707
585
332
467
572
738
309
379
558
721
383
323
519
742
583
337
446
566
725
307
379
559
721
417
328
516
691
568
326
446
572
732
323
396
571
717
412
311
518
724
563
315
451
587
736
319
394
551
704
399
314
517
743
563
314
473
598
684
306
386
550
701
404
325
533
765
556
304
437
606
678
304
396
566
709
406
335
527
725
534
301
453
617
656
312
398
581
704
410
316
526
743
521
310
456
642
678
323
384
537
686
417
325
530
750
514
315
468
659
615
301
380
525
685
405
339
537
763
503
313
456
664
612
316
384
530
687
410
349
534
736
493
312
458
675
611
326
388
532
686
419
341
533
741
482
314
474
683
626
328
388
512
681
406
350
536
746
486
310
478
686
579
318
394
536
674
407
352
554
759
478
308
461
688
610
315
397
553
681
393
364
526
727
468
310
468
685
607
322
420
577
685
350
352
549
734
455
296
476
706
618
327
423
558
686
334
362
537
733
464
312
489
697
605
327
422
566
687
329
370
529
750
473
309
483
687
601
327
408
574
729
335
379
564
721
432
308
490
682
613
342
430
591
728
319
366
551
731
426
310
497
691
610
343
431
559
729
322
374
543
724
430
321
513
709
577
348
421
569
733
305
384
566
733
398
312
507
727
586
329
448
564
728
309
392
555
704
413
319
510
710
574
336
449
588
715
312
383
556
716
417
320
517
746
586
319
440
575
709
305
393
590
711
399
329
532
733
529
314
474
595
676
305
391
580
716
405
332
517
735
536
311
460
611
679
307
402
564
700
404
329
513
745
543
320
466
635
659
315
376
572
718
414
338
542
737
529
312
457
646
647
320
370
548
685
439
313
536
747
466
317
490
658
649
336
396
525
709
407
337
511
771
523
319
468
675
652
331
382
515
683
404
357
522
747
501
320
481
678
633
327
388
504
685
401
351
520
754
487
316
479
687
638
327
371
532
674
426
355
542
743
483
307
472
689
606
326
392
557
684
411
349
543
758
475
307
480
708
609
344
408
551
677
389
357
520
736
461
309
483
709
605
317
405
561
685
353
348
551
751
464
299
489
686
601
323
415
566
689
333
363
552
733
446
301
497
686
596
319
424
571
722
337
367
527
733
463
300
500
687
594
340
434
575
697
329
382
558
731
430
305
521
708
599
345
421
566
735
313
366
547
760
457
305
501
687
603
335
421
555
748
325
375
545
734
414
296
514
702
595
343
429
556
758
319
376
553
731
404
302
515
719
600
336
433
560
736
321
376
546
722
424
302
526
735
591
330
435
567
727
315
381
547
725
424
315
532
725
573
317
447
580
701
317
393
586
717
381
321
535
738
559
313
464
620
685
305
400
565
711
395
327
531
735
553
306
475
629
658
302
402
567
700
390
338
544
750
535
308
462
623
662
303
385
559
710
429
324
530
736
565
314
454
632
660
315
384
551
704
413
333
521
742
530
310
459
651
670
318
379
513
695
409
334
519
748
523
321
465
662
638
324
375
508
686
416
341
521
760
527
318
448
665
645
325
375
513
691
451
343
518
749
483
310
450
670
641
329
375
524
683
421
338
532
757
461
332
465
683
648
319
389
525
685
421
347
544
745
477
316
466
685
607
322
391
537
684
411
349
519
753
468
307
460
689
612
316
395
553
686
415
356
543
729
482
300
463
687
613
332
414
567
685
337
353
538
738
470
301
462
696
626
331
413
554
687
350
351
529
735
492
303
473
687
586
334
423
561
689
330
373
560
749
454
308
465
688
597
340
422
570
727
353
385
543
714
439
305
496
686
595
345
430
586
734
301
365
526
729
430
297
514
700
617
352
431
553
738
319
370
549
727
415
306
530
707
575
337
430
561
736
319
384
549
743
427
310
512
717
587
326
430
568
742
354
389
558
714
422
309
504
716
599
331
447
580
728
294
381
566
721
413
321
506
732
632
322
443
567
716
318
379
553
724
410
314
515
731
586
316
467
582
685
315
382
558
732
422
316
502
736
591
312
452
600
685
337
391
560
688
401
319
511
732
541
308
452
619
676
298
395
559
706
427
317
524
746
549
310
452
609
665
319
377
535
699
426
334
509
749
504
307
452
626
654
320
381
531
725
399
335
514
743
503
303
447
645
662
347
382
531
684
422
335
520
743
496
318
456
672
653
303
376
508
686
433
331
524
743
521
316
455
657
648
322
370
510
689
424
343
555
743
481
304
453
666
632
322
374
525
705
439
340
524
744
481
304
454
683
635
352
389
524
669
427
342
528
735
499
317
462
687
625
300
381
529
682
396
344
533
742
512
313
460
683
613
319
388
540
685
404
366
551
739
468
303
458
682
601
318
402
556
702
377
360
529
739
477
292
453
685
616
356
414
554
680
355
357
539
728
467
310
474
708
613
328
409
583
686
335
380
540
743
486
310
470
686
607
336
416
565
699
346
369
537
739
454
303
468
685
594
331
429
573
736
334
365
549
738
434
298
497
683
602
364
428
572
721
320
390
525
732
434
312
508
693
599
344
423
570
739
310
382
526
731
440
309
509
688
594
344
424
555
732
339
396
562
729
401
300
509
696
588
347
443
559
750
325
387
555
724
409
329
516
727
579
341
444
567
721
332
369
544
730
422
309
532
734
585
333
443
574
724
318
381
561
727
434
318
529
713
573
323
451
572
717
324
396
562
722
403
320
528
732
574
306
449
587
702
312
385
559
719
417
317
525
739
570
314
456
600
691
316
388
562
717
413
327
520
741
567
313
451
606
685
318
382
566
714
413
323
534
741
556
305
452
616
676
318
394
546
707
413
325
511
740
547
308
450
625
671
326
376
535
685
432
331
539
755
524
318
454
613
663
332
384
530
687
413
337
546
747
529
307
456
647
657
317
376
532
696
420
333
534
748
520
315
458
655
655
322
378
520
690
420
338
538
745
513
310
457
661
649
325
374
523
688
421
339
537
747
506
308
461
672
643
328
381
512
685
422
339
538
751
499
315
463
679
642
318
379
520
685
430
333
520
754
492
317
462
681
634
324
384
532
685
422
343
536
742
485
309
462
685
628
325
387
534
684
424
348
502
740
488
311
460
686
627
326
392
541
683
414
350
524
739
482
313
462
686
620
329
400
537
685
390
354
532
749
478
311
465
685
612
328
405
552
685
390
349
538
740
474
309
470
686
610
325
415
559
687
364
353
542
739
466
306
473
685
609
328
413
562
687
347
359
526
737
465
306
475
683
608
328
420
562
688
341
365
542
737
455
304
478
686
608
337
422
567
709
342
371
533
736
469
308
484
686
601
343
425
574
716
339
366
536
734
446
311
495
687
599
341
432
575
726
332
372
535
735
436
312
490
689
597
344
433
575
737
319
367
538
733
440
302
495
689
594
349
433
571
737
331
377
538
725
417
312
504
689
593
344
442
570
737
322
381
550
729
428
313
502
710
591
342
438
568
738
324
382
545
730
425
312
505
718
587
339
446
572
739
314
380
536
725
417
319
505
725
586
335
447
567
735
316
388
566
721
387
316
511
727
580
335
449
575
732
317
389
575
720
428
321
513
728
580
321
454
578
724
310
388
582
720
413
322
522
732
573
320
455
578
709
321
391
559
718
411
322
522
733
566
315
456
590
699
309
388
571
720
401
326
518
740
565
305
450
596
687
315
390
569
715
393
323
520
741
560
301
458
601
686
315
393
581
711
412
329
524
741
556
307
450
610
683
315
387
571
707
414
324
523
744
556
311
451
618
678
312
385
576
707
419
323
525
743
546
307
455
628
669
310
392
554
703
415
327
525
744
539
309
458
633
663
313
388
554
706
413
332
525
745
534
315
456
644
660
320
387
540
704
415
332
524
746
529
316
459
649
655
310
383
536
695
415
336
527
752
524
320
457
649
653
317
383
532
695
418
338
524
745
513
314
460
659
649
322
381
528
686
419
337
524
750
511
315
455
664
650
319
381
522
686
421
341
523
748
506
316
461
669
647
322
384
522
686
417
343
531
747
499
313
460
675
639
320
375
525
686
425
341
531
750
498
313
457
684
638
320
373
525
687
422
342
533
749
492
312
456
685
633
318
386
525
687
420
347
529
741
488
314
461
685
630
327
385
536
686
422
354
536
745
489
312
464
685
625
321
394
534
684
414
346
535
743
484
311
463
686
615
328
394
541
684
409
353
538
744
477
308
463
686
613
328
400
553
685
394
354
541
742
475
307
467
689
614
323
403
554
684
387
356
542
744
468
303
470
687
611
319
409
554
685
370
361
548
743
469
301
474
687
606
329
411
560
686
368
356
547
738
469
300
474
687
609
330
417
564
686
359
359
543
738
468
309
476
687
605
330
409
560
687
349
365
544
743
453
308
480
687
603
336
419
567
687
349
362
543
744
456
303
478
688
609
339
423
568
687
342
367
540
735
451
298
478
687
606
331
425
577
695
335
362
540
736
445
304
488
686
602
342
425
577
718
333
365
544
734
443
312
494
685
596
358
428
570
719
329
372
546
734
441
305
493
683
594
351
430
573
730
330
374
548
731
437
306
501
685
591
343
434
575
732
325
378
547
729
434
311
497
690
595
341
425
573
737
321
375
550
742
433
313
499
690
594
345
434
570
734
326
382
550
734
428
300
499
691
592
341
433
570
741
321
382
558
730
425
310
503
703
593
343
436
566
737
315
374
558
728
423
314
499
713
593
347
434
569
735
319
382
556
729
423
313
511
720
589
333
439
566
735
321
382
558
729
420
316
512
715
586
331
442
570
734
323
383
561
725
417
313
510
723
580
338
448
577
730
316
383
556
720
415
316
517
724
585
330
444
578
726
319
384
565
727
416
323
510
730
578
321
450
579
718
320
392
564
720
414
309
510
731
580
322
452
582
717
325
384
561
714
414
318
514
734
577
313
451
589
713
321
386
556
719
409
323
512
733
573
315
449
590
710
307
382
557
716
405
317
519
735
569
299
452
593
696
317
388
557
716
414
313
517
737
562
310
454
601
690
306
390
556
715
416
319
519
739
561
317
458
606
682
314
387
556
711
410
323
511
743
559
297
455
608
681
309
395
555
713
412
319
522
744
554
309
459
613
678
309
388
555
713
414
323
527
745
551
317
461
617
675
312
390
554
712
412
329
524
748
547
301
454
625
670
317
382
554
715
416
319
516
750
545
303
454
620
670
319
380
535
706
418
324
518
748
539
307
454
627
672
311
379
528
701
419
334
517
750
538
308
454
632
665
322
384
530
696
417
317
521
750
534
311
456
637
661
320
376
522
700
424
337
531
753
526
311
455
639
660
330
376
528
699
415
333
530
749
517
315
458
653
658
315
388
519
694
417
323
515
754
528
313
457
651
656
315
381
523
692
419
328
524
749
519
315
461
660
651
307
375
530
687
424
331
522
746
512
315
450
660
649
328
375
527
684
427
337
526
747
503
314
449
673
647
323
377
523
685
426
333
524
751
502
312
458
674
646
329
376
525
689
420
334
529
744
504
313
458
678
641
322
376
516
686
430
341
531
747
501
307
459
682
639
326
380
511
685
434
338
533
744
493
305
455
686
634
325
381
519
684
430
344
538
746
494
311
458
684
629
326
387
529
685
433
345
526
740
487
315
460
684
629
322
386
529
682
418
348
537
742
486
305
454
687
626
312
392
536
684
408
357
538
746
484
305
461
686
617
326
397
539
686
406
340
539
748
478
305
469
686
621
323
399
539
684
397
350
538
745
474
307
468
687
618
321
403
546
686
382
353
543
742
475
307
456
689
616
315
398
552
685
372
354
543
742
474
302
463
687
613
321
405
559
686
363
354
539
739
476
302
468
693
611
323
409
562
686
360
351
542
742
470
303
469
687
613
324
411
560
686
359
359
544
742
468
304
469
686
607
317
414
562
683
358
360
542
738
460
298
473
698
611
332
419
562
686
344
359
543
740
455
305
477
696
606
336
416
570
687
345
368
539
737
459
297
482
692
607
338
416
563
692
343
361
530
741
454
300
477
687
607
336
421
569
696
337
369
529
733
446
309
485
687
604
341
422
575
713
336
364
538
739
443
309
484
685
599
347
427
573
718
332
364
525
739
448
308
489
686
604
339
425
575
721
331
373
544
736
451
307
487
687
600
343
427
579
726
336
377
548
736
434
301
483
685
598
343
428
577
730
323
374
538
728
433
309
495
687
597
351
432
578
732
323
370
541
733
431
313
502
686
597
339
431
574
733
322
383
564
731
433
312
501
685
595
339
431
570
735
323
375
568
729
420
307
512
710
598
340
433
562
737
314
374
555
728
432
319
508
712
596
347
436
574
742
323
377
566
736
427
316
504
721
597
339
435
569
738
325
379
557
718
426
310
503
709
594
340
444
571
742
323
382
569
734
419
316
499
709
592
330
439
568
736
317
382
571
735
417
319
502
717
584
347
441
569
737
322
378
560
728
423
323
518
719
586
322
440
568
733
319
385
556
726
434
311
525
725
586
344
448
572
729
316
390
556
727
425
314
520
729
581
330
449
573
725
317
383
562
727
420
318
509
728
583
320
452
576
723
316
385
559
723
425
317
512
736
582
316
447
577
720
318
386
561
725
411
320
515
738
580
333
452
582
720
305
392
557
714
422
313
519
736
575
315
455
580
716
324
387
554
718
425
322
528
738
568
314
456
589
707
310
380
555
716
408
315
520
735
574
313
456
586
704
317
387
561
717
399
320
521
735
566
302
457
593
693
313
389
551
718
398
321
524
736
567
312
454
600
690
313
391
553
718
402
323
527
744
563
309
451
600
689
301
395
561
722
394
318
529
738
560
314
448
608
686
315
392
563
710
388
315
517
737
557
308
449
608
683
311
394
561
722
402
320
522
745
550
311
454
613
685
322
393
558
713
397
320
521
743
558
306
455
620
678
300
390
556
713
400
332
525
736
550
295
451
617
681
300
383
550
706
409
324
520
743
547
311
453
618
676
316
391
555
707
401
328
526
743
544
312
448
621
669
305
390
546
699
399
325
525
743
544
314
457
630
663
317
388
549
715
413
326
527
743
539
299
457
632
667
314
387
542
699
415
324
522
743
537
307
455
635
663
312
378
546
708
402
327
525
744
533
307
456
638
662
320
380
548
700
402
329
533
741
532
309
458
647
658
313
384
526
698
409
340
531
743
530
306
455
651
660
315
390
532
702
424
331
523
741
527
314
456
647
653
319
391
526
701
413
331
527
738
521
314
461
644
658
311
375
535
693
416
329
532
746
523
316
460
653
655
322
376
538
689
423
331
523
741
522
319
464
651
650
315
383
524
691
429
333
523
737
513
314
456
659
651
326
388
514
699
426
343
526
740
509
313
459
662
656
327
378
521
689
429
337
528
743
510
316
460
663
651
320
377
515
685
423
343
507
739
510
311
462
662
648
322
377
512
695
430
342
506
743
503
318
455
662
651
323
385
509
687
429
344
530
744
506
301
461
669
650
321
369
513
686
438
336
510
742
502
312
465
669
646
317
368
512
692
432
336
522
744
502
312
459
671
644
323
376
514
686
428
338
514
742
500
312
453
681
643
323
389
514
686
429
338
517
739
494
312
459
677
640
318
382
515
692
432
338
520
743
499
307
463
684
636
330
375
524
682
419
346
543
743
494
304
458
682
640
324
375
537
686
422
344
529
742
493
308
460
682
640
317
381
520
685
420
344
521
750
493
313
458
679
631
326
379
522
684
416
344
536
745
488
312
466
686
631
322
366
534
684
402
349
548
749
490
312
464
686
634
329
389
539
686
419
344
546
747
488
314
462
686
630
328
382
534
689
420
343
532
750
485
310
462
684
625
325
386
529
682
415
349
556
749
489
307
458
686
627
318
391
536
680
401
344
553
747
484
314
465
685
618
323
389
534
684
420
353
553
746
482
310
461
685
624
322
390
537
685
401
347
547
747
479
310
465
687
624
325
396
539
683
398
353
552
749
471
304
466
687
623
322
392
544
685
397
341
554
749
478
305
464
687
622
312
393
538
683
400
357
566
752
477
303
457
685
618
331
402
539
684
394
352
557
746
481
306
470
685
613
325
396
542
684
386
351
557
752
479
306
460
686
621
323
397
547
684
379
351
550
749
475
307
469
686
612
314
405
553
686
400
355
552
750
470
310
472
696
615
312
405
549
682
376
349
561
745
472
307
464
684
615
323
408
550
684
375
352
555
744
475
302
470
688
610
314
402
555
683
371
346
564
748
467
300
469
685
611
319
402
556
685
379
352
541
744
466
302
468
687
609
322
409
558
684
376
358
557
744
469
302
467
687
611
324
406
560
686
368
350
530
752
471
299
469
687
610
331
412
555
686
363
356
539
746
495
306
470
689
610
325
414
559
685
345
353
570
742
471
306
474
688
610
328
411
560
686
351
356
556
745
463
305
470
688
607
323
414
559
685
363
365
544
742
470
305
476
690
612
330
409
558
685
358
364
543
744
461
305
473
688
607
332
416
561
685
357
364
568
742
467
300
479
688
608
328
419
562
686
342
354
552
743
461
302
478
688
606
322
409
565
687
358
358
546
742
465
303
473
685
607
332
413
566
686
344
363
553
753
471
310
460
686
605
334
418
567
687
344
362
546
743
444
306
476
686
610
332
418
568
686
345
365
540
741
458
302
481
687
607
336
417
565
687
344
366
540
743
472
305
480
686
606
327
420
567
687
344
361
534
741
454
302
499
688
604
336
415
571
687
342
368
547
743
460
311
478
695
605
336
416
574
688
333
363
561
746
453
308
482
687
610
337
413
572
689
336
367
536
742
473
308
483
685
606
332
425
569
687
331
362
537
742
459
308
463
688
605
341
422
568
687
342
368
543
744
464
306
484
684
601
330
424
569
685
339
368
527
743
447
308
486
686
607
344
420
567
686
344
364
548
742
449
309
487
686
601
336
421
571
690
337
361
544
743
436
302
484
694
601
332
426
576
688
339
368
537
742
457
306
487
685
603
342
427
575
690
333
369
539
740
448
307
483
685
601
349
424
574
690
338
367
531
742
446
307
483
686
599
337
425
580
698
338
367
549
742
426
308
483
692
600
329
433
577
702
329
372
545
735
457
308
479
685
600
344
425
577
725
343
360
526
736
446
305
485
686
601
341
426
574
717
336
367
529
734
450
304
491
691
603
337
422
571
711
330
366
547
742
426
311
483
686
600
340
424
574
717
334
370
537
741
444
308
484
687
602
344
426
579
711
331
369
538
744
444
309
487
690
591
339
431
578
719
322
368
545
740
447
306
480
687
596
345
427
577
719
329
365
539
741
427
298
483
696
601
339
422
577
722
335
368
533
734
438
307
489
694
602
346
424
577
725
338
371
528
737
442
307
496
687
599
353
433
581
713
319
366
544
733
458
309
491
686
593
344
430
576
717
328
370
540
737
444
309
488
685
599
349
425
576
727
327
372
535
734
441
301
487
689
597
341
425
576
726
320
370
529
735
440
305
491
688
594
350
425
577
722
317
373
546
734
438
304
495
687
602
337
424
576
725
322
375
535
735
442
305
490
689
596
338
429
579
729
330
368
539
735
450
307
499
686
596
352
427
581
731
333
373
527
739
436
303
497
686
598
347
423
579
736
320
371
545
740
433
311
494
686
601
332
430
576
732
322
382
537
738
445
312
494
687
599
338
429
577
730
327
374
542
734
457
306
497
685
597
347
426
574
731
318
375
538
735
432
310
498
685
588
337
429
577
734
314
367
547
736
433
314
495
685
599
338
431
576
735
320
375
535
734
450
311
495
702
597
341
431
574
734
327
373
548
736
458
310
493
687
599
350
425
569
736
324
372
548
734
429
308
497
700
597
341
428
577
736
315
373
548
735
434
308
497
689
597
351
431
572
738
320
369
552
733
447
313
502
688
601
340
428
573
735
315
374
546
737
453
308
500
687
598
352
436
574
729
321
374
557
736
431
311
500
709
598
343
433
573
734
306
377
555
736
430
308
503
695
592
338
437
571
739
319
382
555
736
440
301
500
710
597
332
435
573
735
320
380
551
734
436
309
507
709
597
337
427
569
743
321
378
570
734
428
311
504
715
598
347
439
572
739
311
378
553
733
423
303
504
709
592
335
438
568
737
317
373
565
735
432
312
504
718
594
331
444
565
742
321
377
561
733
414
307
505
717
592
334
431
568
749
313
383
574
731
421
310
508
712
592
334
440
564
751
308
386
553
729
422
310
509
723
588
339
439
565
740
308
378
574
727
422
308
507
723
590
346
439
570
738
318
383
564
727
406
315
510
728
585
343
442
564
738
314
380
571
729
418
311
503
727
586
330
441
571
742
309
390
559
733
414
301
506
728
585
342
443
569
734
307
391
573
727
411
315
508
732
582
338
440
572
738
305
387
559
725
424
309
489
737
583
330
446
565
735
315
382
556
729
407
313
512
734
588
331
444
570
733
312
385
592
723
414
312
519
732
583
331
446
572
731
312
386
569
726
401
313
518
734
581
327
450
570
733
321
390
561
727
424
314
535
738
587
319
446
570
728
306
387
567
725
394
324
516
738
579
330
451
573
723
312
387
566
725
410
316
515
734
576
319
454
582
723
319
385
558
724
396
315
510
735
574
325
459
579
725
318
386
561
717
410
324
513
736
576
325
450
578
715
317
393
560
717
411
320
541
737
577
322
452
585
717
317
397
562
722
393
319
513
734
599
317
450
585
706
306
385
558
714
408
323
537
734
596
313
458
592
701
312
391
558
713
398
320
527
741
525
307
472
615
680
302
409
574
701
384
331
545
739
539
306
477
619
672
301
410
584
713
388
331
547
739
510
306
470
622
670
297
411
575
704
382
333
549
735
543
319
461
602
688
304
393
564
716
404
314
522
741
573
310
437
603
685
310
397
560
718
403
322
528
738
574
299
437
609
686
314
387
564
714
399
322
503
740
558
309
446
619
676
306
396
563
704
385
336
549
745
546
311
465
637
657
305
413
576
697
380
338
542
740
531
300
487
640
648
301
408
578
693
385
339
548
736
531
301
476
613
672
321
401
558
710
404
319
524
744
547
310
450
627
666
307
389
555
708
407
329
534
745
522
304
447
632
670
312
395
562
698
399
333
543
747
510
304
481
652
660
307
412
572
686
384
340
548
741
498
308
472
653
638
306
409
572
689
391
341
544
741
527
309
454
631
658
316
394
545
706
406
327
529
741
516
305
455
640
658
300
394
549
695
403
330
534
742
524
307
462
659
669
312
403
562
686
389
339
549
742
500
313
479
662
629
307
399
560
684
393
337
544
730
528
318
460
647
648
314
395
541
699
401
344
542
742
464
309
471
662
631
303
403
555
687
391
349
553
743
473
310
480
669
649
302
401
559
686
388
340
549
742
475
320
485
658
643
317
383
540
689
402
338
549
744
490
307
465
666
636
309
394
553
686
399
345
534
741
458
309
467
664
643
310
387
537
686
413
337
533
745
477
304
462
662
679
320
384
526
687
412
340
528
747
485
311
481
664
650
319
384
529
686
416
336
537
743
508
309
460
666
648
311
375
527
686
415
333
529
747
491
308
464
670
645
321
381
530
686
419
340
531
747
508
312
465
667
660
316
386
531
683
417
338
529
747
513
307
472
675
642
317
375
524
683
417
340
538
751
524
307
464
676
642
322
387
524
687
421
349
534
749
503
309
464
678
634
321
385
529
685
417
345
533
748
497
312
481
683
632
322
387
530
683
419
342
538
750
482
311
471
685
633
320
387
528
685
418
342
545
753
510
311
461
664
632
352
381
538
685
415
342
534
746
512
304
462
683
626
320
392
533
685
420
341
541
751
489
303
486
686
626
325
390
539
682
418
350
550
748
485
308
450
686
627
326
393
529
685
419
347
550
747
482
309
465
686
627
330
388
542
683
410
349
566
752
479
307
465
685
619
321
393
541
682
414
344
550
746
488
305
475
686
616
313
399
542
682
407
352
556
751
476
306
455
689
617
316
397
549
683
399
349
559
748
486
309
465
690
616
321
402
556
687
389
343
576
751
473
305
468
696
612
317
407
549
684
385
352
553
747
482
309
470
688
609
319
405
556
684
379
354
561
748
468
307
468
692
608
319
406
558
685
375
355
561
744
493
301
471
692
605
320
413
560
685
368
359
576
745
467
305
475
699
604
329
418
562
685
365
359
554
738
476
301
476
700
605
321
416
560
685
365
358
553
746
460
305
469
700
609
317
415
568
686
354
357
563
744
487
306
475
696
605
335
419
572
686
348
361
573
739
454
306
477
684
603
329
421
571
686
344
358
564
746
461
297
473
694
609
332
425
565
685
344
367
548
741
452
306
480
699
595
334
421
573
688
346
364
541
739
462
308
484
693
600
331
424
572
689
319
360
545
735
459
304
479
697
596
343
430
575
694
334
367
533
740
447
303
471
685
595
326
426
571
700
336
367
545
737
434
305
481
694
597
340
426
582
718
323
370
544
734
459
307
490
693
597
337
425
584
718
324
372
563
736
436
300
496
689
593
347
432
583
724
313
372
549
742
423
308
481
690
594
337
432
584
725
319
372
548
738
432
303
496
688
597
344
431
580
727
316
374
552
734
437
309
499
688
594
345
429
579
726
316
379
569
733
429
311
508
693
590
352
437
573
733
325
379
554
736
407
312
493
697
591
349
435
572
734
320
379
551
732
424
313
520
707
588
341
436
571
740
326
384
555
734
404
305
507
717
591
342
435
573
739
315
378
572
732
420
305
503
717
589
340
443
568
736
319
377
563
732
401
312
489
724
586
338
444
568
733
323
384
558
728
417
312
514
722
560
332
441
572
736
318
382
563
727
418
315
510
728
589
331
448
574
734
322
386
563
725
420
315
493
728
587
333
439
575
728
312
384
565
725
416
314
504
731
578
329
445
569
726
315
390
561
725
406
312
518
732
583
327
454
579
726
315
392
561
723
412
312
523
736
559
319
450
582
721
307
393
562
722
411
318
532
738
578
309
452
587
713
319
389
562
721
405
313
514
733
545
313
453
589
709
319
383
562
724
408
317
518
736
573
311
451
591
744
309
386
556
722
408
317
522
741
569
309
439
595
696
313
384
559
717
406
316
524
743
533
309
456
597
693
311
387
559
716
400
324
525
740
571
299
468
601
689
300
391
559
712
406
317
522
739
563
311
461
607
665
299
394
557
714
407
321
521
742
556
293
463
612
684
310
390
557
706
410
331
532
743
554
310
444
619
679
310
389
555
709
409
324
522
741
541
307
471
622
681
313
393
555
705
410
327
527
741
541
297
459
628
666
304
391
553
705
409
327
528
740
536
301
451
631
663
313
392
549
702
408
329
531
744
545
309
436
637
660
308
391
543
701
408
335
531
742
524
308
466
641
688
312
386
538
699
411
334
531
741
523
307
462
643
658
316
379
533
696
410
329
525
746
523
313
447
635
651
310
391
529
694
413
341
531
743
523
315
444
651
657
318
374
519
690
413
338
526
742
508
314
477
656
653
322
378
527
688
418
334
527
742
508
313
463
662
652
317
375
521
685
421
337
527
745
503
312
450
664
651
323
382
530
684
417
340
522
745
513
314
442
672
647
315
384
533
693
417
336
531
747
490
315
482
675
647
324
372
524
686
417
329
533
747
501
319
467
672
618
315
385
532
685
420
345
542
748
495
309
460
681
634
324
382
538
685
421
338
534
749
472
307
461
685
633
323
390
541
684
418
344
533
750
498
309
471
686
630
319
384
540
685
416
343
533
750
486
311
469
685
589
323
385
543
684
415
350
545
746
487
306
466
688
621
316
397
535
686
421
347
534
747
466
303
465
687
616
314
403
548
683
408
341
540
746
489
306
467
687
614
318
396
550
683
394
346
543
747
476
312
470
689
578
320
401
551
684
386
359
548
751
472
301
454
691
607
318
406
554
685
373
361
543
747
471
298
474
709
608
330
412
561
686
362
348
549
742
472
305
476
701
612
325
408
559
683
360
357
542
746
471
306
476
701
570
321
415
563
688
344
362
548
746
465
295
473
697
604
328
422
569
685
333
365
543
742
431
304
473
697
606
330
421
568
691
329
362
541
739
462
296
461
695
602
330
420
569
694
325
363
545
743
453
304
481
697
572
333
421
574
711
321
368
542
740
445
295
482
691
598
333
427
577
723
329
370
542
740
428
303
482
693
599
350
431
577
722
313
370
539
733
439
305
473
690
601
338
423
578
729
317
361
544
737
437
313
497
697
573
343
426
579
731
328
369
547
739
431
300
498
691
594
338
432
582
742
331
375
535
736
405
304
497
698
597
337
434
574
737
317
374
555
739
409
311
503
710
596
339
429
566
735
317
383
543
735
426
316
499
715
580
337
432
568
739
312
388
565
735
425
308
499
722
593
340
437
569
739
313
382
570
730
396
307
511
729
588
334
436
572
735
319
385
577
729
388
314
517
726
587
328
443
568
731
318
385
561
728
418
315
513
733
560
341
453
574
731
310
388
556
725
412
312
509
731
597
333
453
576
727
319
382
561
726
404
305
513
733
579
323
452
580
719
310
383
564
727
397
315
501
737
581
310
454
586
712
312
393
564
723
387
318
540
740
572
308
456
587
703
315
388
559
722
403
320
517
739
568
309
452
590
697
316
392
566
727
408
314
503
741
570
299
452
600
685
302
389
559
717
410
317
509
738
559
302
455
607
684
315
390
558
710
391
318
525
740
558
301
453
613
683
306
389
559
718
414
320
542
740
546
310
455
619
678
301
385
557
711
408
323
538
740
544
292
456
625
672
309
385
546
709
412
325
543
741
540
300
460
636
667
318
389
542
704
411
327
528
744
552
306
457
640
663
307
387
533
702
411
326
516
748
541
307
457
647
659
318
383
526
698
405
323
501
761
547
316
459
648
656
316
379
526
700
414
331
520
746
531
311
459
656
659
316
372
536
695
415
320
528
751
495
309
458
662
655
317
377
535
687
423
328
532
751
483
308
441
662
648
311
369
520
690
425
331
528
750
478
312
454
667
648
313
374
521
685
421
339
534
754
474
313
455
672
638
324
377
535
685
421
345
540
750
499
309
461
682
638
321
373
530
686
414
338
530
752
492
307
439
684
624
320
371
531
685
415
344
559
749
495
303
440
683
625
316
381
529
681
416
340
554
748
490
296
436
688
615
315
389
554
684
408
349
526
753
472
309
463
684
619
320
395
556
682
399
347
542
749
471
301
473
686
612
314
394
564
684
382
350
542
742
472
305
468
684
606
323
404
550
686
371
351
545
755
463
299
473
690
611
329
402
576
686
355
357
544
746
462
305
489
685
610
326
415
568
686
348
359
541
739
461
302
496
697
605
328
421
577
684
324
361
542
741
458
300
497
696
604
328
418
572
696
333
364
533
747
446
303
503
685
601
331
416
572
716
331
362
538
740
441
308
492
686
605
335
426
575
727
328
359
549
738
438
309
490
687
606
338
425
583
729
328
363
543
738
434
303
496
691
598
345
429
577
737
316
370
556
744
436
314
501
710
609
347
429
570
746
318
375
550
730
426
310
498
703
615
345
434
569
743
304
377
554
734
427
312
501
722
615
332
436
561
742
320
377
560
729
425
308
501
726
612
337
443
569
740
321
381
560
727
415
313
506
731
610
335
443
568
732
309
379
558
724
422
312
508
753
566
344
445
576
728
312
387
554
715
412
319
513
742
583
332
443
585
715
305
382
559
728
414
312
509
731
596
340
461
581
716
319
385
549
715
409
313
518
713
576
289
448
601
697
313
388
548
717
410
322
520
746
577
308
446
604
687
313
386
564
716
410
318
517
732
583
300
451
607
677
313
384
550
707
409
313
534
754
561
305
455
619
683
307
384
543
711
416
318
533
745
546
307
454
626
667
324
373
555
700
423
317
540
746
531
313
452
635
665
318
381
546
695
411
329
537
746
534
312
452
643
665
309
378
514
707
415
328
512
744
519
313
457
651
663
307
390
498
703
422
331
534
743
517
304
462
661
651
306
369
533
694
417
323
537
748
509
307
451
657
652
322
372
516
692
434
339
523
751
502
308
451
676
644
321
374
519
686
426
336
511
750
495
304
457
685
643
320
371
516
686
420
344
512
755
494
311
456
685
634
320
376
537
686
422
347
509
746
480
312
453
686
627
321
383
542
686
421
341
534
744
485
302
464
688
616
316
393
541
682
405
334
530
746
