459
503
533
623
394
495
483
639
499
478
500
635
541
447
494
549
630
463
483
480
610
501
475
501
635
557
452
506
572
644
449
484
490
596
492
469
503
627
582
450
492
547
631
455
484
478
675
481
475
499
633
544
442
500
541
630
449
478
485
632
495
467
502
627
534
440
507
537
628
456
475
492
624
502
466
505
620
550
439
501
542
630
447
490
491
626
499
467
504
619
540
443
498
540
626
453
483
495
631
490
450
516
620
537
448
495
530
638
455
485
488
628
499
471
501
631
537
442
501
533
638
451
495
492
627
494
501
508
614
546
434
487
522
651
459
485
500
630
494
468
504
623
554
432
494
537
617
456
512
523
626
474
458
482
602
555
437
496
539
639
458
483
501
635
493
479
497
616
565
439
496
575
632
454
488
486
637
486
470
531
596
570
441
485
533
652
460
483
504
647
500
459
497
615
568
440
496
529
641
477
475
504
677
489
474
482
631
551
429
490
523
645
457
486
499
641
482
469
505
612
568
439
495
528
639
455
480
499
616
493
464
509
615
595
441
502
533
628
440
491
515
641
512
467
506
617
557
418
497
520
633
448
501
511
641
493
464
485
621
633
421
504
511
635
400
501
530
631
491
466
501
611
578
429
493
521
650
457
482
523
640
495
466
504
620
575
448
494
510
648
442
484
518
638
503
453
504
618
589
427
497
512
646
446
490
524
629
490
462
505
618
588
436
487
487
652
451
488
525
625
497
464
496
623
610
426
507
518
673
435
476
502
614
482
452
492
622
611
417
533
509
661
460
470
553
619
512
458
505
628
591
438
502
510
638
457
493
513
635
504
460
501
620
587
434
492
486
662
446
489
520
621
501
461
511
610
575
438
493
509
649
461
478
501
648
496
456
510
581
587
434
491
555
625
453
484
510
628
493
453
507
603
588
421
497
492
661
442
486
517
633
497
455
505
607
579
441
494
505
662
452
484
519
644
491
452
500
601
588
435
490
505
659
457
476
517
642
501
452
501
598
593
444
486
506
656
455
474
516
652
490
454
487
585
600
442
490
507
656
451
482
528
639
500
447
502
585
566
429
491
508
648
458
486
513
665
495
443
497
584
591
432
487
504
651
455
482
516
639
499
450
503
592
578
440
487
505
648
454
485
504
643
504
456
505
596
601
440
489
494
662
451
478
509
636
491
466
497
576
591
428
497
497
656
473
480
514
638
508
446
493
581
588
433
491
501
643
488
479
514
633
513
450
499
593
595
431
490
547
590
464
471
551
636
465
455
472
575
535
444
489
504
650
486
477
509
645
504
451
497
576
600
436
495
502
650
486
475
509
606
510
449
491
572
590
432
495
498
647
476
474
512
640
505
451
500
574
590
436
488
494
643
476
475
509
700
509
406
486
573
551
440
480
496
682
505
478
507
636
506
454
496
579
590
433
486
491
646
495
479
492
629
538
457
493
544
598
432
476
512
635
503
478
511
636
508
457
493
570
566
435
518
466
645
499
477
506
628
499
452
523
552
601
438
504
488
650
496
478
505
624
504
446
496
578
600
434
480
493
638
500
480
509
638
504
478
488
569
604
437
483
477
632
511
482
511
637
511
447
505
569
610
441
480
522
613
517
475
508
628
511
443
520
554
608
411
477
486
633
507
475
504
631
520
441
500
569
605
444
473
493
631
501
471
504
637
509
442
500
545
610
438
481
491
624
503
474
506
637
505
445
499
564
607
443
478
496
615
505
472
506
632
505
440
496
605
574
444
478
484
618
503
486
510
635
516
444
500
555
621
446
477
493
627
500
467
507
633
514
453
499
563
569
446
487
483
618
510
474
509
640
518
445
499
555
613
442
467
483
630
499
476
506
632
507
451
495
555
627
425
478
500
619
501
475
503
638
519
441
495
554
614
447
483
483
617
500
474
505
642
521
452
492
554
622
466
479
488
614
502
470
502
639
529
445
493
556
610
451
485
483
623
495
475
498
629
524
438
495
558
621
450
496
475
633
488
466
505
632
536
446
494
555
626
454
478
483
627
502
467
509
639
528
447
496
555
617
451
521
467
635
489
468
497
627
534
449
496
552
625
450
481
481
630
487
470
505
617
554
448
493
545
620
449
481
479
638
472
467
504
613
548
442
505
547
621
464
482
479
630
486
470
506
613
550
444
496
534
626
455
478
484
618
488
470
503
613
537
443
499
544
626
459
479
479
650
494
466
512
624
550
434
502
541
618
462
486
484
669
489
472
498
614
547
441
499
542
627
458
480
490
637
486
470
499
619
560
440
499
532
629
453
482
498
625
464
466
504
619
567
431
502
534
626
455
486
495
634
496
466
503
618
573
438
494
525
632
455
480
510
636
515
450
505
624
570
434
494
532
636
453
478
503
640
492
469
502
613
543
451
496
529
642
450
482
513
628
499
491
494
622
566
429
498
521
632
452
459
492
643
493
466
498
616
577
435
499
522
643
451
486
507
642
495
462
511
619
583
425
491
500
638
448
490
537
633
498
463
504
600
570
438
497
519
638
453
488
521
642
497
460
549
591
580
440
496
524
644
447
482
511
650
490
462
503
610
579
434
493
515
645
406
491
520
637
498
458
507
625
574
440
503
505
650
454
486
517
640
495
452
509
600
584
435
492
512
645
450
484
520
640
503
458
497
606
558
437
488
516
648
454
486
518
642
492
455
503
597
596
442
488
517
646
458
483
510
642
497
450
501
597
635
397
491
501
637
463
480
498
630
512
455
526
576
591
437
490
509
649
459
488
510
631
496
456
506
589
589
409
495
507
649
503
476
511
648
503
456
498
592
587
432
491
509
646
461
485
511
638
498
450
504
584
595
447
487
501
661
469
449
526
642
522
459
521
579
553
440
494
501
666
452
482
512
635
508
447
497
590
596
428
514
494
651
471
481
502
660
503
450
497
580
598
429
486
505
655
463
478
519
638
504
455
502
583
600
456
475
491
652
481
476
516
642
532
457
503
586
597
438
494
493
658
470
474
508
639
495
447
503
598
592
435
494
541
631
481
481
504
644
507
450
506
576
601
426
485
495
645
469
478
510
638
500
450
498
576
601
440
488
495
665
440
481
506
628
497
444
503
587
605
437
483
495
639
478
480
509
636
500
455
491
569
603
433
481
499
633
459
482
509
656
512
456
501
593
606
433
484
495
634
509
472
513
631
502
442
494
569
607
438
491
498
643
546
464
505
638
501
435
496
570
605
440
484
490
632
499
477
510
634
509
449
502
559
611
437
480
498
631
509
451
506
636
508
441
495
567
604
440
482
478
630
481
470
490
637
476
445
479
576
572
458
490
500
632
508
464
501
619
540
432
492
555
523
447
485
498
631
508
471
509
641
504
445
497
562
615
440
484
489
621
502
479
539
637
511
443
493
558
610
443
487
494
631
504
473
506
632
510
441
499
561
610
443
482
488
626
507
476
506
651
524
436
501
547
597
441
483
494
622
514
466
503
632
509
450
497
551
615
445
481
490
605
505
469
497
691
509
454
498
551
608
447
485
485
629
468
475
510
633
525
449
502
561
613
444
479
484
623
494
468
507
633
514
445
501
538
602
445
485
485
633
500
466
512
627
521
447
493
550
618
450
483
485
640
496
472
506
638
532
420
497
545
615
448
480
479
629
492
470
506
633
516
441
494
551
618
451
478
478
629
489
466
498
621
530
481
490
547
629
447
473
472
630
495
472
502
622
542
446
504
548
624
456
484
478
628
493
470
499
622
548
440
475
538
624
451
478
469
636
484
473
508
621
539
443
497
538
630
452
478
488
623
494
465
507
619
544
441
526
519
628
458
476
477
631
492
472
502
622
547
441
498
541
630
457
484
485
627
487
469
498
618
553
441
496
572
620
458
482
482
635
491
472
502
608
549
436
504
533
630
453
486
502
642
493
469
501
618
567
434
501
536
618
453
478
494
628
495
464
501
615
558
437
501
529
628
457
484
502
629
490
465
501
624
552
438
499
527
622
455
483
506
638
500
463
481
621
536
438
485
531
626
455
489
512
633
502
469
497
618
564
443
497
518
611
455
480
509
624
498
466
504
608
564
437
499
525
628
455
487
513
625
498
465
499
629
574
438
494
521
635
451
487
526
635
501
472
495
622
560
441
496
523
639
445
481
514
625
490
458
497
612
584
447
494
520
640
450
486
520
635
498
458
503
607
574
441
495
515
640
452
480
524
633
501
462
503
610
581
401
493
498
628
448
486
503
647
492
458
499
598
582
445
498
512
638
448
486
517
637
499
463
497
603
581
443
494
511
610
406
489
547
634
493
458
500
589
582
444
497
517
639
456
484
511
632
505
456
500
610
588
441
492
505
645
449
486
504
671
486
460
504
584
585
434
498
507
638
456
478
517
635
492
453
512
596
587
436
488
506
633
456
483
518
634
509
452
504
586
579
428
499
505
643
464
481
503
633
501
456
498
591
566
438
487
505
644
461
484
510
633
546
449
499
584
588
432
490
504
651
468
479
511
640
500
456
502
582
591
429
495
500
636
466
481
513
639
505
477
499
556
599
425
477
496
639
482
481
513
640
503
451
500
575
605
430
489
497
645
476
475
520
635
501
451
475
575
595
436
481
504
665
482
489
493
639
504
454
492
582
595
425
489
496
662
483
477
525
636
502
451
550
565
598
481
506
486
656
480
467
508
633
507
449
495
567
594
428
494
494
658
494
482
508
635
489
454
489
638
580
436
487
493
633
478
477
504
641
498
443
491
578
603
436
482
496
639
507
481
504
631
501
474
487
602
598
440
466
487
629
490
471
506
640
504
446
499
570
604
465
463
478
633
500
482
498
627
513
447
495
562
626
423
485
493
631
501
470
518
637
503
445
496
575
596
432
484
492
623
509
475
508
631
508
446
492
567
594
409
485
496
622
508
477
503
637
512
448
495
560
603
446
480
496
622
504
480
504
637
510
450
495
562
608
476
470
493
619
504
474
502
635
517
448
498
562
598
445
485
489
612
498
492
502
607
528
443
504
560
560
457
463
493
632
500
447
505
623
502
455
479
584
532
455
484
499
620
506
470
504
624
513
447
494
554
599
444
480
478
618
502
472
522
625
513
451
499
553
606
448
481
483
621
502
470
511
626
518
446
498
552
599
447
482
508
621
500
469
496
624
519
444
496
553
608
442
479
485
629
494
464
505
623
518
443
495
550
624
445
480
473
583
500
471
508
617
524
439
498
556
623
449
477
481
554
493
468
507
626
532
444
492
548
623
448
479
477
670
471
468
504
617
528
444
493
550
631
455
477
474
635
486
465
504
619
534
439
498
544
623
449
481
484
620
485
444
500
607
525
430
500
547
619
456
481
479
623
487
472
503
620
533
439
489
547
622
457
478
487
629
483
482
506
623
543
436
491
528
639
454
481
485
623
481
466
503
617
516
443
496
526
627
451
477
487
630
493
497
496
608
547
431
496
528
622
467
481
500
608
482
470
467
644
562
452
497
535
624
452
479
497
639
489
473
523
555
544
470
476
547
643
467
476
499
622
499
466
497
624
547
442
486
524
638
452
478
500
632
495
464
506
589
571
433
491
515
635
452
486
512
638
492
473
499
572
572
438
526
529
594
454
473
487
554
499
458
510
644
515
452
505
560
609
451
485
493
642
494
480
535
578
531
441
495
549
613
456
482
482
637
507
476
510
634
511
465
501
564
608
460
480
494
618
496
470
504
650
540
441
495
552
604
462
483
500
631
499
466
501
629
530
454
502
544
628
453
479
488
564
509
472
502
628
512
448
498
535
616
453
457
481
570
499
447
522
629
554
450
506
546
631
446
486
483
627
503
467
482
630
623
412
498
547
621
447
488
486
650
493
481
470
622
553
457
499
537
623
447
485
482
629
484
466
490
570
567
395
499
540
618
448
477
481
639
488
466
495
614
563
437
507
530
626
455
485
498
631
489
472
501
618
560
488
504
539
638
447
475
482
629
491
469
506
616
551
436
516
511
673
416
509
524
671
506
480
507
629
564
456
520
521
633
453
474
498
637
495
466
502
606
568
441
496
524
648
445
480
505
636
500
463
509
615
604
442
509
545
595
464
514
504
628
493
470
513
610
612
427
491
521
643
456
486
505
634
493
464
503
541
589
431
490
559
628
454
482
504
632
489
461
508
595
583
433
493
512
641
440
485
529
637
491
460
506
598
581
432
488
514
660
432
486
512
627
485
458
504
599
590
433
489
498
648
457
478
512
646
490
465
501
591
591
436
491
509
649
444
482
510
641
496
463
499
588
591
432
494
502
648
450
478
510
639
495
455
499
589
596
433
488
500
652
489
467
514
633
497
451
500
588
591
442
491
493
648
458
454
506
635
503
450
482
538
597
435
486
495
642
459
452
509
634
502
445
501
585
593
451
489
521
594
465
481
503
646
497
450
503
578
597
435
487
493
634
465
487
475
637
511
443
503
564
543
447
493
500
637
464
482
504
630
497
449
504
572
602
442
483
498
628
474
477
530
646
511
474
522
561
605
439
482
473
628
486
475
500
631
503
451
498
565
594
449
480
499
630
470
491
502
647
503
448
497
561
595
440
488
499
628
490
475
503
636
511
449
500
537
604
443
485
492
623
498
475
506
664
512
449
501
561
601
445
477
496
630
486
474
503
631
534
444
497
562
607
451
482
486
630
499
474
502
643
546
412
500
556
608
444
480
484
627
503
474
492
633
540
446
496
557
621
454
480
480
623
500
471
505
613
582
425
501
548
618
448
481
483
628
500
467
507
621
539
448
499
541
622
452
478
482
634
493
474
499
631
537
473
489
546
613
453
478
476
636
493
468
502
628
541
458
496
538
626
454
480
479
632
488
468
504
618
552
442
475
529
626
452
486
475
622
484
472
500
616
551
445
495
537
627
452
481
485
632
483
464
506
618
563
442
522
493
627
452
487
488
632
488
470
505
619
567
438
491
524
626
454
478
493
639
487
459
493
610
575
439
492
556
626
452
487
497
635
491
472
496
603
573
432
493
518
636
455
482
505
632
491
462
496
603
577
436
494
517
596
451
482
506
625
487
466
498
602
569
433
476
510
650
450
481
507
634
492
462
503
603
576
436
499
510
690
442
482
505
636
483
454
495
577
600
427
489
510
643
456
481
501
641
489
462
506
594
586
436
492
505
650
474
479
520
637
491
456
501
589
593
432
492
505
652
454
479
503
636
489
456
501
585
591
431
489
500
653
449
461
511
638
491
449
503
580
597
436
488
500
645
459
476
511
643
491
449
500
577
586
436
485
499
645
460
508
493
633
495
445
499
577
593
434
480
511
638
459
477
507
635
501
454
496
570
596
436
480
497
637
470
474
476
631
509
449
497
564
597
437
484
491
628
471
485
499
632
510
448
494
572
597
437
480
492
626
481
475
525
611
513
449
489
567
595
447
483
485
630
485
471
501
636
517
444
499
571
599
447
480
484
630
486
481
499
646
526
448
496
561
601
448
478
480
623
496
475
495
628
533
444
502
559
611
448
475
481
619
502
474
497
628
494
431
499
554
607
448
479
483
628
500
470
500
629
530
439
501
549
620
452
476
480
619
498
469
503
617
540
425
499
545
616
446
477
473
626
498
469
503
625
538
445
501
532
627
444
475
475
624
494
473
503
623
544
460
491
537
621
445
455
476
635
483
467
507
621
547
439
499
531
624
458
483
481
626
489
471
499
616
557
437
484
534
624
450
481
495
626
494
462
497
619
548
440
496
524
628
451
478
496
628
488
461
495
620
553
445
494
521
631
449
482
493
630
485
462
496
612
568
428
492
519
637
445
482
508
622
495
454
504
599
580
435
492
515
645
449
487
496
637
498
457
503
603
572
436
493
512
640
446
481
505
642
496
461
499
610
586
440
491
514
648
445
477
513
636
489
456
499
599
583
440
485
508
648
450
483
511
639
494
452
495
596
592
434
488
507
646
451
492
503
652
492
452
503
575
597
433
485
501
651
453
480
507
637
487
450
508
583
595
434
486
500
642
456
479
510
637
494
444
502
583
593
431
488
503
643
460
476
507
638
495
452
501
572
588
467
478
517
646
486
480
510
637
474
466
498
568
597
447
500
493
631
467
474
503
640
504
445
496
571
594
437
485
496
633
463
493
499
642
508
447
489
571
600
438
484
494
624
470
471
503
634
531
448
497
571
595
428
481
490
627
484
465
487
625
522
449
486
562
612
445
485
489
629
493
469
505
622
519
443
499
561
601
447
483
487
627
501
477
549
623
525
440
504
549
604
448
478
482
624
499
467
505
621
530
444
494
558
609
455
478
481
618
510
474
506
575
540
449
489
543
626
451
481
483
623
491
469
508
626
537
443
497
550
617
454
479
478
624
493
469
498
645
528
443
490
549
612
452
478
477
631
483
472
496
632
539
443
503
542
621
453
480
480
630
492
471
496
624
603
416
496
530
628
448
481
485
634
488
472
490
632
551
443
501
529
621
454
480
495
632
490
465
495
619
560
396
488
529
628
456
482
498
638
489
468
492
614
559
440
492
522
632
457
479
498
628
490
468
493
609
559
493
476
519
642
442
479
497
640
491
473
501
614
574
431
498
517
645
449
480
503
632
489
463
503
595
568
433
517
521
641
459
472
495
620
495
467
514
626
583
429
493
501
638
450
485
523
635
497
454
496
594
594
437
488
486
658
455
481
509
634
495
456
508
598
593
431
490
498
652
450
490
509
634
496
447
507
586
593
435
493
547
642
456
491
477
634
493
446
502
581
588
437
487
504
650
451
479
508
647
496
455
502
584
597
434
487
502
590
460
479
498
630
520
449
507
578
600
430
490
494
650
459
483
497
654
518
450
504
574
600
439
487
498
664
424
474
497
639
511
442
498
579
594
442
487
502
634
465
476
500
632
526
442
494
566
609
443
481
495
617
507
475
513
642
524
435
497
559
606
448
490
478
608
468
469
487
629
508
441
497
557
607
445
475
486
626
487
455
504
637
544
444
491
560
608
451
482
481
618
496
476
499
628
545
439
496
552
613
452
480
481
626
500
518
495
631
533
444
493
542
615
452
478
478
633
505
482
514
658
489
398
477
543
613
453
490
489
625
499
468
488
620
542
448
492
545
622
446
513
492
626
488
459
498
615
548
444
498
564
621
452
482
478
632
487
464
502
593
548
432
492
528
611
451
492
486
639
465
472
509
603
594
442
482
527
618
442
475
469
642
504
466
525
662
550
442
497
521
621
438
497
500
638
477
445
493
610
575
442
492
533
618
454
488
497
642
485
469
500
611
510
429
497
516
631
444
483
494
675
472
464
506
596
553
467
502
498
643
450
450
510
642
488
479
497
574
596
404
500
509
639
449
478
510
638
501
453
504
597
581
444
492
500
633
452
478
522
627
496
457
522
586
588
461
483
506
646
448
480
503
640
493
459
500
585
595
435
498
498
656
453
485
508
632
490
458
504
571
600
428
468
496
651
452
476
510
643
505
452
500
578
599
424
485
495
643
461
474
520
655
576
443
499
571
599
428
547
487
653
455
477
496
634
506
457
505
573
602
429
484
500
643
467
480
505
628
523
446
510
569
598
453
488
529
630
465
465
491
622
516
452
504
564
598
436
485
490
627
492
473
517
631
531
443
504
565
600
447
482
495
576
483
475
504
605
602
430
503
567
522
456
468
477
637
494
466
503
633
518
445
501
555
615
454
483
485
684
487
466
505
614
514
436
506
603
627
419
476
473
607
493
475
523
629
534
442
492
560
598
468
481
474
640
455
477
500
614
496
436
500
550
622
474
475
484
622
493
467
507
622
559
441
495
540
619
445
480
493
626
511
483
488
622
532
425
490
532
631
456
486
486
633
490
468
499
619
554
439
500
543
628
455
482
490
626
488
500
482
614
512
435
487
524
629
459
478
489
626
496
464
494
607
563
444
496
518
629
447
488
510
630
491
471
472
607
572
440
489
517
607
449
485
509
627
487
453
511
609
583
458
482
513
648
452
492
527
633
487
456
548
568
570
444
491
503
650
450
485
502
657
483
457
503
597
579
437
494
506
653
447
478
514
634
489
454
501
577
581
438
482
505
647
450
490
522
635
488
455
496
586
590
435
486
499
654
457
475
514
633
499
447
502
583
552
438
490
492
644
453
487
511
642
495
450
498
573
596
437
482
505
648
466
476
503
660
498
450
495
569
663
429
488
504
631
467
473
503
648
507
449
495
564
605
423
494
496
633
485
478
502
634
502
450
495
566
599
394
484
498
621
501
467
509
629
501
402
493
579
609
440
472
498
625
507
472
508
633
511
448
499
563
598
484
464
504
618
506
472
504
634
524
452
489
567
602
448
478
487
618
504
465
508
627
512
456
496
560
601
442
515
477
626
502
484
501
632
557
413
496
554
604
440
483
485
625
495
468
507
629
521
445
498
562
611
444
477
462
622
492
465
504
626
531
445
500
551
616
453
484
480
633
488
466
494
623
524
440
492
541
618
454
479
537
625
491
465
494
619
547
439
499
540
617
458
479
475
629
477
466
500
601
562
435
492
539
622
453
478
484
648
485
469
496
606
548
435
501
531
626
454
480
489
635
482
468
496
613
569
439
494
534
631
449
480
507
637
465
475
500
607
562
432
499
522
632
454
482
502
632
489
467
496
596
579
430
495
522
637
454
480
506
640
521
459
503
602
571
430
491
515
644
444
487
503
639
492
461
501
589
574
433
493
510
648
449
482
518
627
488
458
495
598
590
428
493
505
641
450
476
512
647
493
454
496
591
590
428
489
498
646
457
477
516
636
481
447
501
583
583
422
487
502
646
463
481
507
641
491
448
517
582
588
430
485
502
651
468
479
496
634
495
474
493
569
596
429
485
498
643
469
470
505
634
502
446
493
581
586
432
486
497
642
469
480
503
626
507
449
498
559
593
433
486
490
634
483
476
514
631
502
447
495
570
583
443
481
499
619
499
476
504
643
506
443
498
573
598
438
480
493
628
498
480
504
630
511
443
496
557
601
440
477
499
603
500
479
500
622
508
442
503
562
654
431
476
482
605
495
475
552
628
520
449
496
557
605
451
477
492
622
495
470
505
633
513
454
499
554
616
426
485
480
619
495
472
505
640
529
443
496
551
621
451
479
482
626
489
471
509
627
531
440
494
552
622
487
465
475
625
489
467
503
635
548
442
499
540
620
452
480
474
627
493
469
502
621
541
440
496
546
627
446
458
474
629
490
464
497
621
548
438
498
535
628
450
487
489
633
491
466
503
618
559
439
494
527
628
450
511
486
633
492
463
502
611
556
447
496
524
625
447
482
500
635
489
461
508
619
572
440
492
517
635
447
484
534
630
488
465
500
598
572
446
494
517
648
445
490
522
636
497
447
500
609
580
431
490
516
644
453
481
513
671
508
444
499
585
563
423
491
515
645
453
479
506
642
494
452
497
601
573
440
487
513
647
450
477
538
672
495
431
491
578
583
439
490
509
652
453
482
505
645
493
447
501
586
583
435
487
500
646
486
482
525
592
504
458
479
556
590
418
475
499
656
463
480
509
633
497
451
500
579
595
424
485
499
640
481
474
507
635
499
423
503
571
592
426
479
504
641
469
479
503
640
499
444
494
573
594
429
478
496
630
488
471
505
637
503
449
473
566
600
424
478
495
637
491
474
509
632
504
445
492
567
599
430
479
492
630
507
476
501
633
506
448
457
561
605
433
479
483
622
504
487
509
629
508
448
499
562
609
439
480
486
624
508
470
506
630
510
447
520
543
602
446
476
483
630
505
472
505
626
509
448
490
563
605
448
478
482
617
504
467
506
628
517
444
494
593
601
454
481
475
627
498
469
504
626
514
444
498
552
613
448
484
478
631
496
470
506
620
533
451
495
544
560
447
473
481
621
475
461
502
617
523
444
489
544
619
453
478
475
626
481
464
504
619
548
437
493
540
674
428
492
475
618
476
467
513
613
558
440
491
538
616
452
478
483
630
482
467
499
609
568
431
495
531
623
436
482
489
635
487
461
494
621
570
438
500
525
625
432
460
507
629
497
466
477
602
574
434
492
511
682
434
475
499
625
488
460
516
569
578
438
492
509
636
451
477
521
630
492
460
498
600
568
430
486
511
643
444
517
513
628
494
457
494
595
578
447
490
508
647
417
471
519
629
492
452
486
593
582
437
493
503
640
457
484
487
634
496
454
504
588
583
434
488
505
653
447
469
519
632
495
458
493
588
586
439
484
503
654
455
483
508
568
492
447
498
654
570
428
500
485
660
408
494
522
644
494
454
507
590
589
433
488
494
646
466
479
506
665
499
447
502
566
576
433
488
494
640
462
471
506
641
498
451
493
575
589
432
481
498
642
477
473
504
632
474
447
504
564
596
430
484
499
638
459
474
505
636
509
451
501
572
591
442
478
506
630
448
478
494
649
583
439
500
557
598
441
478
490
643
461
485
502
631
504
440
498
571
598
439
488
492
629
488
481
502
624
510
456
494
561
599
443
490
494
624
489
478
503
632
511
448
496
562
603
449
479
483
619
506
469
502
632
518
446
480
556
606
446
477
483
618
504
473
503
616
519
448
488
550
611
438
475
485
623
505
473
503
631
530
453
516
546
620
455
476
470
624
499
474
503
622
534
443
493
548
615
451
484
480
625
495
467
503
626
537
440
499
530
623
451
476
471
624
493
466
509
627
540
444
495
543
623
443
480
474
628
489
471
504
626
547
440
492
568
611
448
487
481
627
485
466
506
624
553
442
492
538
629
445
480
483
637
488
472
503
614
558
444
485
526
661
447
491
490
637
487
463
501
615
575
441
497
525
629
460
481
495
637
491
461
502
618
567
437
494
522
628
472
482
500
629
493
462
493
612
580
433
493
479
642
447
481
511
634
491
467
498
597
576
435
496
516
644
484
474
510
635
491
458
499
614
579
434
497
509
624
458
481
510
637
488
458
503
602
582
434
493
506
646
448
499
509
635
483
462
499
583
591
443
491
514
640
449
490
511
629
495
455
504
591
596
434
488
501
647
453
484
507
634
489
446
495
587
586
432
491
506
650
458
481
512
641
492
456
501
608
587
430
491
502
648
456
481
546
622
498
458
501
582
596
438
490
499
650
457
479
508
641
498
453
497
580
590
442
492
496
655
462
478
507
662
502
454
493
572
592
435
494
500
644
462
477
511
641
507
450
490
571
596
434
482
499
633
475
477
506
666
493
446
497
568
592
445
485
497
640
465
482
502
630
507
449
500
571
604
439
479
493
634
466
480
504
630
540
440
500
584
596
441
483
494
627
499
475
506
638
512
448
501
563
603
440
482
498
630
500
475
511
640
510
421
496
565
601
439
483
490
642
503
470
505
629
514
443
497
562
606
450
478
491
623
495
475
501
638
519
488
482
561
614
442
471
486
622
505
468
506
628
520
449
497
557
604
448
482
482
619
503
471
508
627
527
444
535
562
616
459
466
474
605
492
468
509
637
544
451
493
540
616
450
481
478
627
488
467
500
630
538
439
496
527
617
448
485
475
624
488
469
498
624
542
443
497
541
621
452
484
479
627
486
465
503
619
547
450
500
578
599
452
487
477
617
486
471
506
622
547
443
496
537
683
453
481
500
624
485
459
512
620
555
439
495
530
587
448
490
488
626
490
462
506
610
560
444
494
535
625
459
476
491
633
489
461
505
615
573
439
489
529
629
448
485
500
634
487
455
502
608
571
442
493
519
632
450
480
504
643
493
456
500
605
591
436
490
517
645
446
484
512
635
492
456
498
602
586
433
492
512
645
456
482
511
636
488
465
503
594
592
433
493
513
637
452
484
514
640
494
458
494
595
583
434
489
515
641
454
485
521
634
489
459
491
595
577
436
491
506
643
454
477
510
636
494
458
498
591
595
425
495
500
648
450
486
506
636
496
452
497
590
589
423
494
501
643
456
480
515
633
493
455
504
585
588
428
487
496
649
454
518
503
630
495
450
490
585
585
434
487
501
646
452
471
519
617
499
446
494
582
595
431
495
498
645
462
477
504
636
500
454
502
640
573
436
468
471
645
456
483
508
684
498
453
503
576
586
435
488
497
653
458
476
508
638
497
452
497
575
594
438
487
493
640
462
480
507
637
472
444
501
567
597
427
491
495
640
461
480
505
630
507
442
501
573
598
444
484
499
633
487
475
500
632
533
458
500
584
541
423
473
479
633
477
488
508
630
505
443
498
561
614
434
478
495
633
494
477
503
632
503
468
493
561
597
438
477
486
633
502
478
501
636
515
449
500
562
610
446
471
498
620
505
475
503
636
519
442
515
581
594
448
472
482
622
510
471
504
637
522
439
495
562
613
449
472
482
621
507
475
505
627
526
467
525
544
616
453
475
489
624
504
476
499
624
534
443
501
554
625
449
475
478
627
503
469
505
629
515
440
502
564
620
447
485
479
622
509
474
503
631
540
440
496
548
620
451
478
481
625
494
471
504
630
534
446
496
540
590
452
478
474
639
488
469
510
630
544
444
500
543
624
450
481
477
629
486
473
506
622
548
444
495
540
660
450
477
477
623
481
459
505
634
551
442
490
535
624
447
488
475
633
494
467
507
624
553
442
496
534
633
472
479
482
640
481
458
498
611
564
442
490
543
630
447
488
492
638
484
463
498
612
571
438
494
532
625
477
491
479
639
484
455
491
612
579
440
490
527
618
457
478
495
638
490
445
515
593
575
428
491
519
630
464
517
489
636
490
461
494
608
568
437
497
522
633
450
488
506
635
498
460
499
609
573
440
497
526
627
456
485
519
637
493
464
488
589
577
444
496
528
638
446
483
498
645
489
466
495
601
581
432
497
515
642
452
484
559
629
498
460
496
592
584
434
498
514
646
447
474
523
637
491
461
493
610
587
437
490
504
648
458
479
525
657
489
455
497
582
585
435
493
511
651
456
481
513
639
490
464
497
599
587
446
490
505
654
452
481
515
637
483
460
501
599
584
431
492
498
656
453
485
515
636
492
453
506
579
593
433
496
498
656
455
481
516
633
539
428
503
584
588
427
487
505
653
456
482
513
627
495
475
496
585
580
444
487
486
647
452
483
506
643
497
429
501
588
586
437
483
493
656
458
482
507
634
504
447
508
578
597
430
488
496
642
459
484
522
650
495
489
493
572
597
427
483
506
643
465
482
512
645
499
457
512
577
591
439
480
495
639
457
481
499
626
506
447
541
549
610
435
480
494
630
468
486
496
644
499
442
499
571
604
438
488
492
633
469
484
499
637
506
448
503
538
610
437
481
487
625
485
479
508
636
508
449
497
567
592
441
486
499
622
479
482
499
627
507
447
499
643
584
441
485
493
624
498
474
507
641
511
447
498
565
607
444
481
489
625
502
474
500
639
507
445
497
561
629
435
484
488
624
495
472
511
639
513
456
498
552
611
449
483
488
626
494
471
506
637
498
463
489
573
591
419
476
489
622
497
479
504
660
522
420
498
560
603
446
484
492
630
502
468
503
625
525
441
504
558
612
485
489
495
617
504
458
492
624
536
456
497
552
604
450
477
487
639
496
478
502
626
536
442
495
559
613
446
457
477
645
494
466
500
625
534
448
505
545
614
449
484
482
626
487
465
505
627
541
456
496
536
614
461
527
496
628
494
464
491
617
549
452
497
535
618
453
480
488
631
485
472
502
618
553
444
497
539
615
461
479
510
626
487
469
492
618
548
446
498
540
622
453
482
486
629
483
469
496
629
525
427
515
531
619
434
484
482
643
487
464
499
605
551
440
510
537
634
445
485
491
630
488
466
501
612
558
442
493
529
629
458
479
486
699
469
464
493
613
559
433
502
532
639
451
481
482
630
491
466
498
617
571
431
488
530
639
447
488
500
632
503
466
500
606
558
435
494
529
641
442
478
495
640
490
471
495
616
564
438
500
518
637
451
489
506
631
498
451
505
609
569
439
495
514
641
452
478
504
631
488
464
500
613
569
433
491
520
635
453
482
509
634
499
499
475
611
579
425
487
512
648
455
483
503
626
488
460
501
612
575
438
494
509
648
452
479
512
634
488
456
474
600
578
427
497
504
647
452
490
512
635
491
458
503
599
581
437
489
510
653
448
488
511
635
490
451
581
604
539
436
487
497
639
457
485
508
641
494
453
500
599
583
440
490
506
654
453
484
513
639
496
457
503
635
578
440
488
507
645
450
483
507
634
490
453
502
583
599
433
487
502
653
458
481
512
641
491
449
499
586
538
434
489
502
642
455
483
510
640
498
451
507
572
609
430
486
492
655
457
478
507
639
493
447
508
567
665
420
489
502
635
453
478
505
643
498
454
507
574
593
431
487
500
643
463
476
507
641
494
449
501
575
596
452
477
494
641
447
473
507
634
503
452
497
565
595
431
482
493
641
478
471
509
639
501
445
497
565
599
430
470
499
640
462
468
504
634
505
448
497
580
596
433
484
500
638
467
475
505
635
506
452
498
569
602
436
522
462
640
463
478
499
633
520
447
503
565
609
443
484
495
635
471
474
503
623
517
448
503
566
604
442
480
467
634
482
473
499
634
511
455
497
569
601
438
485
489
601
485
457
507
630
521
453
500
564
603
440
485
534
633
501
472
498
623
507
442
508
568
607
443
480
486
633
497
480
506
625
517
437
500
565
601
449
478
489
627
506
470
505
629
517
445
501
566
604
451
483
482
627
507
471
508
625
521
455
497
560
607
449
480
484
621
497
470
503
625
529
447
500
557
605
455
479
487
624
503
471
506
625
537
439
500
554
608
452
476
484
621
498
474
500
628
534
441
500
562
612
456
478
477
631
498
474
503
628
541
444
497
552
612
458
475
485
627
500
474
500
634
532
443
496
550
620
455
481
481
627
496
476
498
633
541
438
498
541
625
446
483
473
627
492
468
498
627
541
448
502
543
624
482
489
471
630
479
464
495
627
551
448
500
539
623
448
482
481
631
492
470
538
600
556
444
500
533
625
449
486
483
626
483
468
501
629
551
442
497
540
626
448
490
477
639
486
475
500
583
550
443
490
534
623
450
489
491
626
488
458
502
626
560
436
500
533
622
452
485
485
636
487
465
506
682
516
434
495
527
612
451
485
498
645
490
465
498
612
570
436
492
527
626
453
485
491
623
487
456
505
615
611
426
497
520
636
444
485
495
632
496
459
503
606
571
449
494
524
637
451
485
494
642
493
460
501
614
563
455
482
522
631
443
479
503
647
494
465
501
603
580
439
499
525
641
450
484
504
633
489
463
500
604
586
476
486
508
637
451
476
521
638
494
460
504
595
589
431
503
512
642
451
479
480
629
495
436
500
603
586
430
504
523
642
455
476
496
632
486
463
492
593
600
426
492
511
644
452
512
562
634
488
460
501
583
596
438
492
488
644
452
486
509
641
493
463
506
595
598
454
507
494
645
444
464
515
645
497
467
507
584
589
436
491
551
651
441
480
505
625
485
458
511
607
592
434
490
505
660
449
485
507
630
499
453
503
586
602
424
491
499
604
455
482
507
627
497
455
506
590
591
432
489
498
651
456
483
506
632
496
454
503
590
590
434
494
497
682
412
474
509
633
488
448
504
589
604
429
489
498
648
455
486
504
635
491
449
501
583
587
440
483
500
646
489
474
513
631
500
443
507
585
597
436
484
500
640
464
477
505
639
500
449
505
576
594
438
481
501
641
463
449
504
643
498
446
499
588
620
431
481
518
631
462
473
505
624
506
445
502
568
596
440
481
498
630
460
516
492
636
507
457
495
564
614
441
482
489
648
454
475
502
638
508
452
495
568
600
445
476
495
633
465
481
532
633
511
445
499
566
607
440
486
500
622
463
485
524
638
525
413
504
557
652
435
490
497
629
479
471
498
618
518
452
502
558
607
443
486
489
634
481
482
503
638
514
450
490
574
596
445
485
494
615
499
478
502
682
510
450
497
559
600
442
484
493
627
494
476
502
634
520
452
497
565
603
453
482
495
626
502
476
501
633
565
438
496
557
601
442
487
482
623
506
470
504
640
525
446
496
561
609
452
485
486
624
495
468
510
634
561
452
501
573
604
449
469
476
625
509
479
510
633
537
461
514
569
642
451
503
488
577
499
458
523
642
550
480
495
562
606
452
478
492
633
499
471
499
623
545
445
497
554
617
447
480
484
580
489
465
509
630
550
469
515
525
629
455
480
473
643
497
480
508
641
543
440
504
553
616
406
476
467
681
496
461
488
636
536
436
532
539
624
454
479
478
624
494
476
497
617
546
438
497
544
615
450
496
481
631
488
475
498
621
555
434
506
556
608
463
481
476
638
486
474
493
611
557
442
497
536
622
454
481
486
628
489
473
492
621
555
442
500
538
593
455
480
484
630
488
475
499
623
557
436
496
535
624
449
489
490
636
487
470
495
620
547
450
496
529
669
444
483
493
626
484
471
502
631
558
448
495
528
630
449
484
491
634
496
466
465
623
569
438
506
527
635
428
478
491
632
489
468
497
622
563
439
497
520
636
455
478
509
631
492
460
509
614
567
446
499
525
635
478
452
510
634
491
455
500
612
581
443
495
520
635
448
488
511
633
484
465
502
608
571
440
492
513
634
447
510
510
635
490
460
497
609
580
444
495
515
641
457
485
511
637
494
462
504
615
573
442
493
486
652
442
491
537
644
474
457
500
583
579
444
505
521
626
460
465
517
616
494
459
513
610
585
445
501
520
622
457
484
572
626
490
456
497
611
589
435
497
513
651
452
489
518
636
494
459
510
576
595
415
499
510
653
450
485
510
656
489
463
507
598
590
421
495
508
654
463
486
531
638
499
461
486
595
591
429
495
505
651
464
486
515
640
473
464
509
595
623
432
493
506
649
457
481
508
645
491
457
511
585
592
435
492
493
653
464
480
515
642
520
433
508
583
589
428
484
506
654
461
479
511
639
492
459
506
579
583
431
491
500
645
458
483
509
644
496
421
501
583
591
426
492
499
649
455
481
508
637
501
452
507
575
604
427
492
499
644
457
478
511
643
498
486
491
573
600
434
489
495
655
465
478
509
639
497
449
500
579
596
427
482
500
648
458
488
507
636
500
457
528
573
595
434
489
494
642
465
482
509
636
500
452
503
577
605
431
486
497
640
465
472
509
638
504
444
504
542
593
443
480
497
643
484
484
512
636
514
448
496
576
595
442
480
495
631
465
476
505
635
504
449
492
640
596
442
483
486
640
490
486
496
666
512
464
502
593
605
439
487
503
599
482
485
487
623
502
448
499
584
628
409
486
496
618
495
476
506
640
506
444
499
562
602
445
484
495
627
497
478
505
646
518
446
501
568
605
414
484
503
638
499
470
510
633
518
444
496
563
609
444
483
489
622
506
479
504
628
515
451
501
557
625
480
492
447
630
496
464
495
630
529
454
490
562
605
448
488
491
622
504
470
508
637
516
447
498
560
610
453
454
481
629
509
471
498
638
532
449
500
559
611
447
485
482
624
507
476
507
628
531
445
504
557
619
450
536
494
618
508
464
496
623
535
451
500
549
619
454
480
486
624
501
468
511
630
528
451
498
548
610
456
482
507
627
498
475
503
625
536
456
506
549
618
444
482
470
617
488
468
486
642
541
447
500
545
623
448
487
479
627
486
467
511
628
550
441
491
545
620
452
484
476
633
492
463
511
630
547
450
495
542
621
454
480
479
633
489
469
498
625
551
445
499
538
622
451
487
483
632
485
465
498
616
561
445
497
532
629
453
480
481
643
490
463
505
618
566
447
496
529
622
456
490
488
632
491
476
504
609
569
444
500
530
618
455
490
491
636
488
474
503
612
562
445
499
530
621
456
487
495
633
494
470
500
593
562
437
500
524
631
454
485
496
643
495
467
497
615
630
422
495
528
613
449
479
513
636
495
469
498
601
580
435
499
523
640
456
483
509
638
492
463
470
599
582
433
496
512
646
461
479
514
645
487
464
495
613
573
438
499
513
646
453
484
514
634
494
462
533
577
584
436
493
506
654
451
485
512
639
492
463
503
610
579
437
489
507
651
452
482
515
633
500
452
506
641
578
437
495
503
631
458
489
514
627
498
456
502
592
593
425
497
505
649
454
481
517
634
493
456
497
590
618
437
502
483
641
434
470
507
645
507
457
496
568
634
411
482
551
632
426
502
508
603
554
454
488
606
635
398
479
488
667
452
474
513
649
497
450
493
587
589
438
485
504
659
453
487
505
635
499
449
498
582
587
405
486
497
653
451
476
512
640
496
447
509
581
594
438
491
504
634
463
479
504
632
498
440
509
597
593
436
463
498
650
458
479
504
645
496
451
500
576
596
430
482
500
648
462
456
500
645
486
444
499
570
607
437
525
477
643
464
476
499
641
498
445
501
581
610
456
485
497
635
461
481
505
635
500
452
503
565
594
439
483
478
635
469
479
496
640
504
452
506
570
599
437
486
498
631
490
481
497
626
542
441
504
570
601
434
482
531
632
495
478
502
620
501
439
516
577
603
438
478
495
627
502
483
501
634
507
450
504
556
598
438
485
492
663
503
474
506
603
512
426
505
580
610
427
484
489
632
512
476
512
627
514
445
490
571
611
443
467
485
625
482
474
510
626
490
441
458
573
593
451
487
484
626
503
472
499
628
525
462
498
558
606
449
480
482
627
555
466
506
631
526
440
502
558
610
453
475
486
625
505
472
512
626
522
443
507
550
618
454
484
480
626
504
490
502
627
525
443
495
552
617
459
485
478
615
501
474
508
621
530
447
490
554
612
461
485
480
629
496
474
490
608
622
486
488
588
607
460
480
479
630
495
473
505
628
537
446
501
548
611
458
475
480
625
488
472
544
631
559
412
495
532
598
451
490
492
576
487
484
502
616
564
447
501
538
608
450
479
481
636
473
480
500
571
555
443
505
524
580
445
472
496
601
503
478
503
621
555
439
481
559
629
445
486
475
640
495
448
515
655
541
425
499
523
626
457
488
496
630
492
471
494
619
567
434
503
526
633
450
496
484
623
451
468
493
622
607
428
501
525
597
455
475
504
641
494
468
497
604
568
437
502
524
630
451
485
491
638
454
467
500
623
570
461
471
516
616
441
443
519
634
506
471
489
626
575
417
501
520
637
444
479
517
637
509
474
504
611
589
488
483
512
652
440
494
507
632
493
458
501
596
584
434
494
523
655
453
483
503
640
454
462
491
606
580
433
511
499
643
446
479
513
638
494
458
496
597
584
437
494
504
658
448
477
515
636
498
450
506
584
553
386
493
549
657
465
478
505
624
483
447
502
609
604
438
494
502
653
452
496
510
649
492
448
507
578
599
438
487
549
606
461
479
499
636
495
451
503
574
596
433
486
503
649
466
477
506
644
493
455
497
591
584
437
486
492
587
455
459
503
630
495
452
513
543
605
434
483
494
696
448
483
509
634
490
449
503
576
615
396
459
501
686
468
471
511
635
495
451
495
587
604
440
489
495
638
469
483
504
643
499
455
504
565
601
430
487
499
625
525
473
509
637
504
443
494
572
606
433
494
495
623
478
477
504
640
498
451
500
566
610
438
490
491
626
486
495
472
644
503
438
483
554
607
450
489
490
624
499
476
512
630
519
450
494
570
604
442
485
489
628
493
524
492
634
526
447
492
567
606
456
482
483
640
500
467
505
636
529
449
496
564
606
451
486
487
621
507
473
470
619
540
445
498
551
608
454
491
481
626
494
480
505
630
533
450
498
559
611
451
480
480
624
503
474
506
580
526
443
495
546
614
453
492
483
622
504
485
485
627
486
445
503
547
612
459
479
470
625
495
471
499
686
546
439
501
536
607
443
478
491
639
485
475
493
618
560
439
499
537
592
453
485
476
630
491
477
498
627
507
430
505
541
621
449
486
489
637
488
467
502
621
556
447
498
538
627
452
482
486
633
483
469
498
626
598
419
495
536
626
441
483
486
632
488
474
498
617
566
437
498
533
635
453
484
487
638
485
470
497
631
589
482
492
515
631
441
475
492
636
494
481
497
605
573
453
494
523
635
450
482
502
623
499
466
502
605
582
440
473
517
639
441
476
503
635
497
463
502
608
571
443
498
515
640
450
486
505
639
494
458
509
600
589
438
551
501
646
451
487
498
628
497
464
503
601
592
432
499
511
646
451
485
517
634
493
451
506
602
588
434
493
533
646
455
484
508
637
498
458
509
604
585
436
491
509
652
449
482
521
646
498
443
503
592
588
438
491
505
603
456
490
492
636
491
469
509
590
590
434
494
500
652
452
484
510
642
491
453
510
594
597
436
493
503
700
455
490
489
627
482
432
511
591
629
454
489
500
639
461
486
516
641
491
456
503
585
590
430
490
496
651
408
473
514
635
490
451
505
579
601
433
489
499
646
462
483
511
637
499
452
503
569
600
435
486
501
637
495
462
508
638
501
450
486
575
602
442
488
489
635
474
478
509
640
506
452
504
568
607
430
492
495
635
468
514
499
640
504
443
492
570
608
441
491
491
639
480
478
512
639
504
446
498
565
602
434
487
492
634
492
465
530
613
511
446
488
554
603
442
494
486
633
495
478
503
631
514
445
490
558
604
436
477
483
633
495
488
504
631
507
447
495
560
609
443
479
482
622
505
472
506
631
518
447
497
557
606
447
486
483
621
506
477
502
629
528
449
495
560
597
455
480
484
625
497
483
511
624
527
447
494
564
611
464
475
485
620
499
473
502
625
527
458
498
556
615
451
478
486
605
494
494
