502
583
550
453
491
517
601
462
487
493
615
491
472
505
585
553
458
497
529
599
465
485
508
606
496
471
507
581
551
455
496
520
608
461
490
513
607
496
473
497
583
549
454
500
521
608
468
482
527
603
505
469
509
574
548
452
501
515
607
462
484
521
607
502
469
500
577
549
456
497
513
607
461
489
523
601
500
466
502
583
564
454
496
505
609
462
496
515
599
500
463
500
582
563
452
496
516
603
465
494
514
603
495
465
507
572
555
450
494
515
618
465
485
525
602
503
464
502
586
556
451
495
507
624
466
481
522
612
500
461
505
576
547
455
487
515
611
466
486
520
614
501
465
500
576
563
449
489
512
607
472
484
515
613
494
462
503
570
564
448
496
508
610
460
487
514
614
497
461
502
572
567
453
496
504
613
465
477
517
609
500
463
503
571
558
450
493
503
617
476
473
518
614
503
468
507
565
559
443
497
512
619
471
497
509
612
496
463
505
568
563
448
495
508
614
467
481
520
615
502
469
502
567
552
459
489
504
619
489
483
510
617
505
463
499
569
559
449
496
503
614
470
485
510
611
502
465
499
567
563
449
494
506
611
472
479
510
604
509
462
497
572
554
447
494
496
623
480
481
521
608
499
463
491
577
565
455
495
504
615
478
473
514
618
498
459
500
564
568
452
491
504
619
477
485
513
612
503
453
502
561
577
451
488
506
610
480
485
511
612
502
460
502
561
561
452
489
506
607
494
488
504
611
509
458
499
559
576
448
500
500
615
484
480
516
606
505
457
504
561
581
450
490
502
614
487
481
514
614
503
462
499
554
575
450
494
500
611
494
479
509
617
506
467
498
559
567
448
492
503
607
487
482
508
614
503
469
496
560
566
449
492
502
599
497
476
506
611
497
467
498
551
567
441
497
502
605
503
479
514
611
506
460
497
557
563
449
493
504
596
499
481
512
615
508
456
510
552
572
443
485
503
607
499
475
507
611
511
460
497
560
562
457
490
502
609
503
483
509
605
513
459
494
558
568
450
486
499
606
501
488
507
601
508
458
498
557
571
453
492
497
605
501
476
514
585
511
461
497
558
560
454
488
495
608
505
482
506
604
516
461
496
550
571
459
488
499
604
480
485
509
602
519
461
498
556
592
455
490
498
601
503
492
511
600
512
458
501
556
566
454
486
505
595
497
477
511
597
506
456
500
553
575
445
484
499
615
500
486
508
604
513
457
499
548
576
453
486
498
601
505
479
510
583
510
459
496
547
576
464
481
502
594
506
483
505
606
510
457
496
557
576
457
486
497
600
496
479
511
604
502
459
503
551
579
450
489
495
604
506
477
509
605
514
452
497
555
582
449
485
493
601
508
483
505
598
513
458
496
552
577
457
487
490
604
500
475
504
599
520
457
497
554
572
455
489
491
598
501
482
503
597
513
461
501
551
580
464
482
503
590
501
482
504
602
517
462
503
551
572
457
486
495
596
499
475
510
594
519
454
502
554
574
463
484
490
596
498
481
503
595
518
455
497
553
580
459
481
490
597
499
479
504
590
521
459
495
550
581
459
481
495
591
492
477
499
595
521
453
503
550
573
460
480
495
594
497
477
512
597
523
455
499
550
583
460
483
495
602
499
475
513
599
518
453
497
541
594
466
483
493
595
499
472
501
597
530
457
499
544
594
460
482
492
596
497
475
501
593
519
453
497
540
596
461
482
494
592
493
479
508
593
518
459
506
537
594
463
483
492
591
501
487
505
595
518
461
500
539
587
465
483
487
590
501
479
497
598
528
462
501
540
591
464
482
490
600
494
474
512
598
522
460
495
535
585
461
489
494
593
493
470
500
603
518
454
499
538
577
465
485
490
600
493
475
507
580
528
457
497
540
589
465
481
494
601
491
475
503
597
525
452
501
544
589
460
479
494
601
497
474
507
614
525
455
499
536
599
468
481
496
602
491
476
500
601
522
454
497
542
591
471
484
490
594
495
476
498
601
542
450
499
532
599
459
483
491
598
491
477
503
593
525
456
502
531
596
466
477
492
595
495
470
502
592
526
451
503
536
584
462
485
490
596
498
468
504
580
533
461
498
537
590
457
486
494
601
494
481
502
587
534
468
496
531
597
457
487
494
601
492
474
503
603
526
459
503
529
589
459
487
493
599
491
474
505
594
531
460
490
533
595
459
486
492
599
495
469
500
585
533
448
500
537
596
463
481
496
600
497
470
509
591
528
452
514
535
591
465
485
492
605
493
477
507
585
530
459
496
536
591
462
485
495
611
492
478
503
589
536
457
499
543
583
471
487
490
603
491
470
502
582
537
457
498
532
587
467
485
506
602
497
480
505
579
536
454
497
533
580
464
488
496
600
491
475
507
579
540
452
503
534
589
471
484
496
604
500
476
501
584
540
453
498
538
601
464
486
493
600
492
476
499
600
541
451
495
544
590
463
492
504
609
497
475
503
588
529
456
496
530
596
463
490
498
593
494
470
508
591
535
458
497
526
599
468
486
499
604
495
471
503
586
531
455
496
532
599
459
482
500
605
498
473
502
594
533
456
495
530
613
454
489
501
607
496
470
500
584
538
463
498
530
602
465
496
490
608
492
470
500
587
536
452
495
531
590
464
488
503
594
498
473
503
577
546
455
497
523
595
464
484
497
608
496
472
506
583
533
444
503
532
600
463
488
498
606
501
469
503
582
534
449
500
532
593
466
490
522
600
497
473
508
579
540
457
495
532
597
463
481
505
609
496
474
500
579
539
451
498
519
597
463
486
503
608
500
470
502
587
536
452
500
525
600
463
484
510
609
501
470
505
592
534
449
499
520
602
465
486
504
608
484
467
502
584
537
453
499
524
601
467
483
507
605
502
472
503
592
534
450
498
521
601
464
489
504
601
497
475
499
591
539
455
499
529
602
465
484
507
602
495
473
502
588
536
453
500
525
599
464
484
506
608
497
474
507
574
531
459
501
526
593
463
488
509
598
500
471
500
588
535
458
494
530
592
463
486
507
601
497
470
505
598
538
457
503
524
583
466
488
503
605
499
470
507
583
545
455
496
539
591
460
488
506
609
491
478
508
584
539
455
501
532
593
466
488
509
607
494
477
504
593
543
455
507
530
587
463
485
504
609
492
473
508
595
536
449
498
531
595
465
484
517
605
496
474
509
590
533
453
498
533
597
466
484
508
606
491
474
499
593
534
454
497
533
602
462
486
516
599
495
478
505
595
535
454
499
532
600
463
489
509
604
499
474
502
589
536
453
502
530
602
461
482
511
607
497
471
515
595
536
457
499
534
600
459
487
514
602
499
470
500
592
536
455
496
528
598
456
486
502
604
493
464
510
591
544
451
501
533
599
459
488
500
603
496
468
505
600
538
453
505
529
602
454
491
506
597
489
467
502
594
530
455
493
529
607
454
486
507
608
497
474
510
597
534
452
496
529
601
458
478
499
611
499
468
505
592
540
451
497
532
601
458
483
503
623
496
471
499
592
539
454
498
534
605
456
485
501
617
495
467
506
589
541
451
500
530
596
459
490
496
619
492
474
503
592
542
442
499
537
600
463
487
502
607
492
469
504
590
540
449
495
532
598
461
483
497
610
493
474
503
590
545
453
500
529
589
464
486
499
605
501
476
508
607
536
448
496
526
623
458
494
497
609
498
470
494
590
545
452
498
525
607
462
483
494
612
492
467
498
592
550
458
500
516
602
463
487
492
614
496
474
500
593
542
451
494
527
601
461
487
495
605
500
471
501
594
544
451
499
528
608
463
486
493
610
499
472
506
589
540
449
496
528
599
472
480
489
613
496
470
499
590
544
454
493
531
605
461
485
491
614
497
471
504
586
545
457
496
525
609
461
495
490
611
499
475
499
589
545
454
499
528
604
461
489
487
612
498
469
500
596
558
465
495
527
598
461
482
487
614
494
477
503
588
542
453
498
521
603
459
481
501
623
497
478
500
582
542
444
499
529
597
472
483
485
599
486
477
496
588
543
453
502
533
601
468
487
491
608
492
479
504
581
537
455
500
532
600
460
485
491
613
494
475
500
597
537
450
504
532
599
465
485
495
606
497
476
505
591
538
458
503
537
596
465
489
490
603
480
473
500
590
537
455
498
533
601
472
485
492
604
494
477
498
595
541
451
498
532
611
461
483
488
599
502
473
502
593
539
449
497
529
609
463
485
487
604
496
475
503
598
537
454
501
530
604
461
478
478
608
493
475
507
593
535
453
497
531
601
462
489
484
613
501
473
509
587
543
453
503
537
593
467
487
490
604
489
473
499
586
538
456
495
531
595
466
485
484
609
496
475
500
597
545
453
501
538
596
467
483
481
605
498
474
509
587
537
452
501
537
601
471
487
483
608
491
478
505
592
531
453
500
534
602
466
479
485
607
493
476
502
584
531
453
498
533
600
464
480
482
604
496
473
500
595
541
453
505
534
599
464
478
484
608
497
475
505
600
530
450
496
527
600
466
477
484
599
495
467
514
601
541
448
497
533
603
469
481
482
608
503
474
494
603
537
451
518
526
602
469
480
482
604
505
481
501
603
543
456
496
536
600
466
477
481
607
506
482
503
581
531
447
495
532
605
466
476
482
592
519
473
514
620
542
457
496
533
608
460
488
490
607
507
474
503
604
539
468
492
538
598
456
478
487
609
508
482
501
601
536
459
497
547
595
464
486
480
603
505
476
502
606
533
456
502
536
599
460
485
481
598
503
475
504
601
533
453
500
543
600
459
485
480
603
501
470
506
603
531
456
499
541
598
461
482
482
606
510
475
507
599
524
456
498
544
593
458
482
482
601
503
481
502
597
532
456
499
554
592
463
481
460
619
509
495
503
604
519
468
495
542
593
461
486
487
601
503
474
506
603
535
453
501
545
592
458
483
490
613
506
480
499
607
521
449
499
549
599
454
485
484
599
509
479
503
605
517
452
499
541
597
462
483
486
600
512
473
502
605
531
459
498
544
597
455
486
487
598
509
477
504
605
518
456
497
544
589
462
486
491
598
506
475
504
604
516
456
497
545
588
455
481
485
600
506
476
504
605
520
456
500
546
591
451
485
491
601
506
477
506
606
518
456
497
547
591
448
490
491
602
503
473
510
603
517
453
497
550
593
452
494
486
606
512
476
508
604
517
459
495
551
591
451
484
491
607
510
477
516
602
524
459
498
545
587
447
479
496
587
505
474
505
606
519
460
500
550
585
454
488
496
609
502
476
501
605
523
453
500
551
584
456
487
491
595
505
482
504
597
523
456
498
551
583
455
485
488
606
486
482
506
597
511
459
496
556
579
455
484
496
616
504
479
506
604
508
453
496
555
585
454
490
493
605
495
480
504
603
513
457
498
553
583
453
485
494
611
501
481
508
602
510
452
505
555
586
452
486
494
611
479
481
503
610
505
458
500
547
575
453
485
507
588
489
482
501
612
513
451
498
569
573
449
489
494
606
487
476
505
614
510
457
500
554
587
445
483
496
609
505
486
505
607
509
453
498
568
583
447
486
497
616
492
482
505
610
512
451
499
564
581
453
486
497
615
491
486
506
608
513
459
499
551
581
449
491
493
615
483
474
506
610
514
460
500
555
579
450
494
538
446
504
543
588
461
484
494
599
482
477
504
603
532
462
495
540
601
453
495
496
613
486
473
506
599
565
443
502
546
594
458
490
512
603
506
478
520
603
535
453
504
542
594
459
493
498
614
478
491
503
601
540
455
496
538
596
465
480
497
611
483
475
513
597
536
454
502
543
566
462
488
494
615
485
468
503
592
605
412
484
576
550
462
483
493
645
474
475
484
542
575
432
542
550
540
467
506
471
624
522
478
503
588
499
447
561
544
600
461
497
484
565
486
529
507
618
530
454
504
527
563
507
488
496
623
493
478
499
574
536
455
529
540
584
452
500
477
665
478
477
510
583
519
440
517
540
594
459
488
492
586
497
493
498
658
521
458
506
533
596
472
463
492
592
484
472
521
603
522
458
505
535
598
463
482
495
594
496
483
510
611
528
456
503
538
594
462
480
500
585
498
507
514
600
511
443
516
531
589
458
477
489
591
497
477
508
613
511
458
499
552
584
453
474
487
650
482
482
524
621
508
454
496
551
589
464
494
487
596
498
478
503
618
521
453
499
575
579
450
479
503
602
504
474
505
611
523
448
488
580
574
463
492
495
618
496
483
516
607
519
459
501
569
569
459
489
514
594
504
484
506
601
511
457
498
568
563
451
483
491
605
504
467
518
611
493
464
506
542
612
465
466
502
605
487
477
503
597
510
458
505
566
567
445
493
488
594
493
476
506
586
513
463
504
567
592
450
501
506
605
490
471
500
608
524
455
512
542
551
439
487
517
601
494
481
502
613
502
450
520
553
582
448
483
512
607
486
485
523
616
503
453
502
557
566
457
486
503
603
483
492
502
618
503
446
501
563
615
436
491
506
606
485
478
504
611
497
457
497
553
579
448
488
506
608
478
483
509
613
497
464
503
562
573
441
487
512
607
482
476
508
619
500
458
505
566
562
442
488
502
616
467
479
513
614
498
463
499
555
558
432
490
500
635
465
478
511
627
496
458
497
571
572
439
498
519
596
452
482
512
608
492
463
491
586
574
441
491
503
617
462
479
514
620
495
459
507
573
562
440
492
504
619
461
483
520
612
495
457
505
571
605
432
493
511
609
483
468
513
624
497
454
504
579
574
441
492
516
625
456
492
511
619
496
457
504
579
565
441
489
502
633
456
493
510
623
490
463
504
574
564
441
489
517
625
465
479
514
614
495
461
505
578
612
434
505
511
616
461
497
502
629
492
460
498
577
566
449
495
512
612
461
486
516
617
492
463
501
580
568
441
489
510
619
466
479
519
622
487
464
515
573
553
449
496
518
617
465
485
519
616
503
462
501
597
577
430
494
511
615
462
482
517
604
493
470
497
580
552
441
501
513
615
465
479
518
617
499
465
504
580
551
441
500
515
629
457
489
506
622
492
463
503
594
548
437
503
519
612
456
483
524
611
501
459
505
596
555
428
504
509
600
461
482
512
619
491
452
500
592
542
442
492
526
624
459
479
525
605
506
469
495
581
558
440
496
522
620
459
478
507
614
491
469
506
597
553
451
495
525
617
465
483
507
613
495
465
506
600
566
448
501
533
610
445
487
503
609
510
487
500
609
545
449
493
528
594
459
483
498
609
489
472
501
604
542
447
499
529
605
459
489
494
614
499
466
496
608
536
457
500
527
603
454
489
487
612
484
474
507
591
573
444
500
541
604
446
486
489
616
489
473
509
595
541
448
495
538
596
464
486
490
613
485
473
507
601
531
455
501
542
587
471
484
489
612
490
484
506
596
532
443
507
547
595
460
482
491
606
485
476
507
607
545
435
516
539
600
458
484
491
613
496
469
501
609
533
444
506
550
583
480
477
490
605
499
472
506
599
525
453
503
552
583
458
482
490
610
501
476
505
609
511
452
505
557
590
461
482
495
616
499
478
506
614
518
438
501
558
590
459
489
499
592
499
477
498
617
521
467
502
551
607
444
487
490
603
506
472
507
615
504
453
507
551
591
457
480
499
608
509
474
511
610
507
464
498
559
585
451
481
502
598
511
478
503
622
536
451
529
558
575
443
487
509
603
496
474
512
617
507
454
521
550
592
446
489
502
616
493
478
511
630
506
454
501
563
575
451
497
497
613
497
480
505
618
508
453
500
571
569
446
491
504
610
486
475
513
614
505
447
498
569
564
450
490
502
613
486
479
509
615
509
459
507
581
572
434
489
503
605
476
479
515
620
506
451
502
581
564
441
491
502
609
475
478
518
618
504
459
500
570
574
446
485
508
620
469
479
511
607
531
455
504
565
580
444
485
509
618
463
484
508
615
501
459
507
568
563
457
466
508
623
463
484
509
619
504
455
507
573
569
447
490
503
638
453
484
515
626
499
456
504
574
567
451
486
513
615
462
484
512
626
497
442
508
573
570
440
490
507
628
461
481
519
621
492
461
504
574
567
450
503
510
617
460
480
506
616
495
467
506
580
562
440
487
515
627
463
483
511
618
495
462
497
579
571
436
500
513
615
458
490
514
620
495
456
498
577
551
445
493
511
625
468
484
516
615
495
469
499
588
562
446
500
531
613
459
481
514
614
492
463
502
596
559
449
499
516
622
458
489
523
619
495
467
499
598
562
454
495
512
616
462
479
518
616
515
457
495
601
559
447
495
517
621
458
484
509
621
495
466
504
601
557
441
502
512
622
447
482
511
615
490
477
501
595
549
449
500
517
611
465
482
512
604
499
472
503
597
548
452
500
525
615
457
487
512
609
511
462
496
602
548
447
490
532
607
462
488
500
611
500
469
508
605
538
455
497
531
609
455
480
495
614
488
471
505
607
537
449
499
537
609
453
494
499
609
488
471
502
610
536
452
494
539
597
456
489
497
605
489
460
512
603
540
457
500
538
621
454
481
492
606
480
475
506
609
534
452
498
541
594
468
485
495
613
486
470
503
605
525
452
506
550
603
467
485
490
613
486
478
502
605
530
449
501
548
601
467
484
494
605
511
470
504
619
527
445
503
550
598
463
478
486
609
495
476
507
618
522
450
502
545
599
457
484
494
628
486
475
502
604
516
452
505
550
595
464
481
491
603
504
477
493
617
512
453
497
546
600
456
486
490
598
502
489
504
618
508
458
498
550
594
456
483
493
602
504
476
510
621
505
456
507
556
575
448
487
488
600
507
472
510
619
506
459
502
555
584
450
480
498
608
510
476
507
620
500
453
501
563
592
451
487
498
604
498
477
508
617
507
460
496
557
577
447
487
498
605
490
475
508
623
508
454
503
578
581
444
479
505
595
506
475
510
625
505
462
504
563
579
445
485
502
612
472
477
508
624
510
458
500
567
583
441
489
494
604
497
480
507
622
513
449
496
574
574
442
487
503
621
470
485
502
598
549
438
508
586
555
449
489
500
618
466
489
519
613
500
457
550
563
560
455
500
479
629
470
483
498
619
510
453
500
562
566
452
490
507
622
468
480
513
618
507
440
517
584
550
442
496
506
593
470
474
523
622
488
450
500
573
563
446
489
514
622
458
478
507
624
509
448
508
574
559
448
490
507
628
467
478
509
628
497
459
500
569
581
438
494
501
632
460
481
514
619
503
452
505
572
567
443
496
513
620
463
479
513
623
493
467
505
575
559
439
494
520
625
456
497
510
606
491
464
504
571
565
447
493
506
626
461
487
511
613
497
461
506
581
566
439
492
504
625
464
478
521
624
510
456
519
570
581
441
495
511
620
462
480
524
630
486
457
505
595
552
436
496
510
629
459
481
534
624
490
463
507
570
555
448
496
512
621
459
478
521
617
488
463
510
590
556
445
496
506
629
459
484
517
607
494
485
503
625
549
449
494
511
621
455
482
519
620
483
473
502
602
547
443
500
518
606
462
494
503
613
502
473
501
586
551
447
513
520
605
453
488
504
606
492
473
503
603
547
450
491
528
617
458
486
517
606
500
470
504
592
545
451
493
521
614
454
487
506
618
489
471
498
603
546
445
494
536
605
456
489
503
610
489
468
508
597
542
462
493
533
601
463
485
494
602
485
469
504
599
532
448
499
526
605
453
484
490
621
492
474
507
607
540
459
489
536
603
449
485
490
619
494
473
509
610
528
448
500
544
591
461
484
491
610
496
479
498
600
534
451
510
535
598
456
486
486
612
478
474
514
624
527
445
517
546
601
465
483
494
606
491
477
506
618
524
455
501
555
592
468
478
489
612
494
475
507
628
537
453
500
547
592
459
483
494
605
496
478
506
615
522
452
500
548
598
446
484
488
593
500
478
503
617
527
453
503
546
581
465
474
495
602
501
478
504
618
516
464
508
554
588
443
480
496
609
509
471
504
618
511
456
499
552
588
453
486
505
588
506
487
503
597
523
467
499
552
592
463
487
495
608
497
479
508
620
512
461
505
555
590
447
487
495
605
500
475
535
609
511
449
501
555
581
444
481
503
601
502
463
513
620
503
466
497
568
581
443
490
495
588
500
481
508
616
496
455
504
564
580
448
495
495
619
494
480
508
615
502
462
501
563
586
442
493
502
619
486
477
516
619
508
461
500
564
575
447
487
494
613
487
478
504
616
506
460
503
565
568
445
501
501
615
479
479
511
610
503
463
498
573
562
445
491
506
605
471
481
516
614
516
457
503
563
582
444
487
506
620
470
477
509
615
502
464
505
578
566
448
488
505
632
461
480
505
622
496
452
502
569
573
448
492
503
623
467
484
510
628
492
455
499
567
574
446
498
501
618
455
484
516
620
498
455
507
576
571
445
488
509
622
464
486
511
619
490
461
507
565
568
440
488
513
623
479
480
514
620
495
459
501
574
574
440
496
513
627
461
482
517
620
499
464
494
579
564
440
499
507
618
460
494
517
619
495
461
497
580
580
444
498
512
626
462
483
520
622
498
462
501
588
554
442
493
510
630
458
485
509
626
496
461
497
602
552
446
496
517
622
455
484
512
619
494
467
503
584
553
447
494
514
621
466
480
540
611
490
467
498
588
547
445
499
520
620
459
479
513
619
494
467
505
583
555
452
485
515
615
457
489
516
590
500
459
496
580
548
451
492
522
621
455
490
511
613
488
466
500
604
550
453
498
515
610
457
482
507
615
487
467
504
593
536
444
495
534
602
449
488
507
603
487
465
511
596
563
442
500
528
610
454
491
508
622
502
462
501
591
551
442
499
533
605
466
485
499
606
490
459
513
601
545
448
505
538
605
453
478
508
615
494
467
512
592
541
449
493
539
608
463
490
488
618
490
474
504
607
531
451
506
534
610
454
486
490
610
485
492
496
613
540
447
501
535
599
463
475
498
616
492
467
507
605
544
443
503
546
603
466
480
494
603
488
472
511
613
540
453
495
542
568
460
489
494
607
494
475
502
618
533
455
497
540
618
457
488
493
612
491
477
507
595
525
456
501
538
609
458
483
487
603
503
480
506
610
529
453
501
549
595
454
483
490
592
504
478
502
626
517
457
499
549
598
458
482
497
607
501
474
507
613
515
453
498
546
597
458
483
485
603
499
472
505
613
507
450
503
553
591
450
487
496
599
499
471
511
615
532
449
497
556
586
455
487
496
605
496
471
516
619
528
447
509
558
582
449
491
495
614
498
475
517
622
506
463
495
564
579
453
482
500
606
501
480
508
611
509
471
495
560
591
440
484
495
612
493
482
515
609
523
456
498
560
582
441
487
502
610
493
473
509
624
508
452
501
559
575
446
485
498
608
492
485
509
615
514
458
498
570
574
449
489
504
610
478
483
510
617
508
457
527
563
564
453
485
499
613
477
482
513
613
501
450
501
573
575
446
490
500
613
471
479
509
618
502
450
508
577
560
444
488
506
624
467
491
515
615
499
461
509
569
571
446
488
499
612
468
477
514
639
499
459
504
563
558
440
484
507
616
465
486
511
620
501
466
504
567
564
444
494
504
613
479
480
515
612
499
462
500
563
598
442
493
501
637
466
484
512
627
499
455
488
579
565
440
499
509
622
460
481
513
615
500
457
501
580
574
429
488
504
629
462
488
516
620
499
462
500
578
564
431
497
512
620
464
479
508
633
500
460
508
579
560
453
483
509
629
460
481
517
603
498
460
507
582
553
445
495
508
624
469
482
517
613
492
461
501
586
564
446
498
508
626
455
493
519
608
501
461
503
589
561
442
495
516
622
467
485
522
618
502
467
507
583
551
454
495
516
619
460
487
509
614
493
459
511
585
555
449
494
511
614
460
491
516
608
491
462
504
606
562
448
495
515
619
455
488
510
610
501
464
502
593
553
445
495
518
619
458
480
517
620
494
457
512
590
547
449
498
523
610
459
482
511
622
494
465
500
598
549
446
494
523
612
457
482
513
622
490
471
503
590
558
454
494
524
615
457
485
503
621
495
469
502
604
551
448
498
536
603
458
490
503
626
493
469
504
602
553
447
492
525
604
473
478
508
609
481
472
500
599
547
450
501
523
612
461
484
508
618
489
472
505
609
548
446
500
531
609
466
482
501
617
493
469
499
600
542
450
499
534
596
461
488
500
609
487
477
502
606
547
447
501
536
603
452
502
488
612
484
468
506
605
537
452
502
538
600
465
487
497
598
494
471
497
607
541
449
496
540
596
460
488
508
607
488
475
504
599
540
455
497
539
587
461
485
493
618
482
478
510
610
528
456
502
540
602
456
490
490
599
486
475
503
609
538
452
504
541
606
451
486
496
595
489
468
504
613
530
454
501
548
597
458
483
488
630
485
477
508
609
525
446
498
548
593
455
480
491
619
490
477
503
598
533
457
498
554
594
452
488
487
615
503
471
511
601
534
453
499
562
597
455
485
487
619
492
472
508
599
532
453
497
553
587
451
490
489
614
499
472
504
618
527
454
501
560
588
459
485
494
609
498
474
516
614
530
458
495
557
583
458
482
492
601
500
489
510
609
511
450
497
558
581
467
483
488
606
500
480
508
613
515
456
501
557
580
459
483
491
619
492
483
495
601
513
454
501
556
585
451
482
498
610
497
479
501
616
508
448
507
563
578
450
483
500
603
507
479
519
618
508
449
508
563
578
443
487
499
585
510
474
512
628
505
458
504
559
574
445
490
503
603
505
482
505
633
506
460
500
562
575
445
487
499
605
494
474
509
612
507
462
502
557
581
445
486
502
609
497
475
512
628
488
458
503
563
576
441
481
500
613
493
484
504
621
505
466
501
565
576
439
487
503
617
469
482
506
614
504
453
491
574
573
447
479
508
616
494
471
506
617
502
460
505
565
580
444
488
502
611
462
482
509
617
506
463
505
558
584
442
487
500
615
476
479
508
610
490
464
499
567
555
449
489
505
620
471
482
516
624
499
456
496
572
566
447
489
501
619
470
485
515
622
498
456
501
571
563
445
492
506
613
466
488
507
611
495
461
517
566
562
444
485
501
628
463
484
518
620
507
459
509
571
570
446
492
501
625
471
481
517
627
501
447
506
558
563
441
487
508
614
470
489
516
623
498
457
503
577
572
452
489
509
617
464
480
508
632
495
460
503
583
560
458
488
502
628
456
485
508
616
497
452
505
570
569
448
491
507
620
473
484
511
625
496
460
503
563
592
437
494
506
625
457
491
513
611
484
460
497
580
573
447
496
514
628
463
481
512
620
496
465
504
579
567
451
488
505
616
457
478
513
616
507
462
499
572
561
440
501
506
633
461
478
514
619
500
460
505
580
560
460
494
506
627
458
476
525
618
502
457
507
590
538
451
492
509
620
459
485
511
618
495
460
496
581
557
448
496
508
629
459
489
513
624
502
463
502
592
548
448
493
514
626
461
489
513
612
490
460
497
591
558
443
492
504
624
455
492
517
610
510
467
497
591
553
450
483
506
613
469
486
520
617
498
463
501
585
554
447
487
535
613
460
485
518
623
491
462
500
586
555
448
492
522
617
458
475
512
620
494
460
505
588
563
451
497
518
604
454
487
515
614
495
461
503
587
562
445
494
517
612
457
484
520
613
495
466
499
584
561
448
496
520
618
454
482
516
619
488
465
504
594
554
452
496
521
608
465
488
514
605
497
464
500
586
556
439
500
530
607
483
478
517
625
482
470
507
598
548
447
499
524
609
464
490
508
622
494
468
504
586
543
455
500
524
616
455
467
512
622
490
461
498
591
554
454
502
525
608
463
489
502
620
493
467
505
599
547
442
496
534
602
456
498
504
611
495
472
498
602
549
450
500
526
613
458
489
500
605
497
470
502
608
543
447
503
524
594
458
484
498
641
489
465
502
605
549
451
503
528
607
453
490
500
608
487
472
504
594
549
451
495
534
606
460
484
493
601
491
467
508
589
539
459
499
536
601
454
486
496
616
493
471
505
596
539
451
496
533
616
454
486
493
631
491
470
506
601
538
454
502
537
599
459
487
492
615
487
469
500
600
538
444
502
536
595
461
485
491
609
485
466
504
599
539
449
495
538
596
460
487
489
612
486
474
509
597
536
449
500
540
596
459
488
491
621
499
472
502
600
534
447
510
544
595
460
486
490
615
488
465
507
612
528
451
499
547
595
466
488
494
616
488
494
501
604
533
447
500
542
600
451
490
488
615
491
469
506
603
528
451
500
536
598
462
481
492
617
486
474
494
618
530
455
502
539
601
460
485
495
610
490
472
502
620
531
456
499
538
596
463
478
491
613
495
474
519
617
515
455
497
543
605
455
485
493
606
495
477
508
619
528
451
500
558
602
454
480
486
605
498
475
507
624
523
455
500
548
594
460
483
489
589
500
472
508
613
522
456
495
550
600
459
482
498
607
501
475
504
611
518
455
501
545
597
452
490
491
596
500
476
503
610
526
457
506
557
590
468
484
485
604
496
477
509
611
535
451
501
561
578
454
487
492
613
499
472
512
603
524
452
502
550
583
462
483
493
611
494
482
510
603
519
445
497
559
588
452
484
497
605
497
481
502
611
514
449
500
566
581
451
483
495
605
500
482
505
604
506
460
489
559
585
454
479
491
614
501
477
514
608
513
447
498
558
577
449
480
498
616
509
478
505
622
513
458
519
557
579
454
475
498
586
503
476
509
611
517
454
499
552
593
457
483
498
606
505
481
504
620
511
456
509
566
601
456
482
503
592
499
482
508
621
508
456
499
560
596
450
484
500
602
499
485
507
616
515
459
503
559
596
449
482
502
605
482
476
509
610
508
453
497
560
574
446
489
498
597
508
480
505
616
507
459
504
554
592
452
494
500
605
489
480
506
618
510
464
500
557
585
447
490
499
601
500
479
511
625
509
459
498
557
579
437
490
499
615
489
479
511
616
505
455
502
559
584
441
492
504
609
496
478
511
623
507
456
500
563
575
446
485
497
605
498
478
511
623
503
457
499
560
585
447
488
498
619
487
474
495
608
532
456
500
566
577
441
478
499
613
481
477
507
611
512
453
502
567
572
454
491
501
607
476
481
511
614
509
460
503
572
566
455
497
499
612
473
482
501
624
502
454
503
569
571
448
485
505
603
502
483
507
628
506
457
501
567
561
436
489
513
610
471
484
508
618
501
451
508
557
566
453
482
509
615
484
481
510
624
512
457
507
564
565
453
487
506
607
468
488
498
617
498
456
501
574
570
442
485
522
604
483
483
508
623
498
458
499
564
572
433
490
507
640
466
480
510
620
499
459
502
566
572
446
494
502
616
477
480
506
621
501
454
496
568
581
438
487
504
613
477
476
510
616
499
459
494
577
580
438
493
505
611
475
482
515
618
500
458
504
573
567
444
487
506
621
472
462
511
618
494
453
497
577
572
446
486
511
617
472
485
512
611
500
458
502
582
576
441
494
501
622
469
486
496
616
501
456
506
563
567
447
490
497
633
466
490
515
613
506
460
502
578
562
447
489
510
620
468
484
500
618
505
457
502
569
567
446
484
501
628
460
486
508
620
499
451
496
573
563
447
492
495
619
463
483
530
612
501
454
505
566
567
444
491
510
621
461
487
507
614
502
454
508
577
565
443
486
514
622
469
489
507
633
499
454
507
567
559
448
478
518
622
467
478
512
610
494
460
504
578
570
439
491
507
620
474
479
510
619
485
462
503
572
558
444
487
517
620
463
472
509
627
498
465
504
574
567
445
492
508
626
460
487
510
622
520
452
505
570
569
437
499
497
626
473
483
521
629
495
456
499
572
564
437
490
515
628
454
483
506
613
496
470
493
589
551
435
485
499
630
484
475
518
615
498
461
505
573
564
445
492
499
631
464
479
508
617
501
457
501
578
565
445
487
505
625
470
480
508
620
509
455
500
566
566
441
492
507
621
460
479
533
622
498
456
525
568
558
448
495
511
601
461
487
506
617
498
457
505
583
564
449
490
507
621
465
485
508
621
498
459
496
569
562
451
483
502
625
464
492
517
622
500
455
504
574
569
449
493
504
623
459
475
510
620
500
459
505
590
535
443
491
510
611
469
481
515
617
500
463
500
573
563
450
489
508
618
466
476
512
626
498
459
505
566
609
438
484
507
621
458
485
513
627
500
456
500
571
575
446
490
514
619
463
481
510
647
495
453
502
569
575
426
488
510
617
462
489
508
626
498
459
511
560
560
445
492
506
605
466
483
511
620
498
461
505
572
570
464
487
507
623
458
482
514
622
496
458
499
570
557
452
493
509
629
463
481
520
611
500
465
501
583
568
438
501
497
628
464
481
514
618
497
444
501
573
567
445
489
508
625
462
485
509
625
500
457
503
577
553
448
487
499
621
459
482
510
619
492
453
507
578
559
431
497
503
618
458
480
514
614
497
461
501
576
562
440
491
521
612
462
484
507
610
495
446
498
576
571
443
489
504
628
460
483
513
618
501
456
505
573
562
446
488
503
609
465
482
509
628
500
454
503
576
571
446
483
507
621
460
480
513
625
496
457
505
572
566
448
486
504
627
449
480
513
625
497
454
500
577
572
447
492
519
615
458
477
510
617
501
457
512
574
560
452
491
500
620
480
488
513
619
502
456
501
571
574
444
487
507
612
466
480
512
613
496
463
505
574
564
441
495
519
587
471
480
537
621
499
463
508
564
548
437
494
502
618
467
484
515
642
483
461
502
560
563
441
495
509
624
463
483
508
606
503
462
503
563
574
442
493
512
622
466
479
508
622
497
457
499
570
569
441
496
507
622
458
482
522
610
501
458
504
566
565
442
499
506
615
478
494
511
623
498
462
493
576
562
442
494
501
628
464
478
509
596
500
464
499
565
561
450
473
496
624
467
477
520
616
502
461
506
569
563
450
494
503
624
464
491
508
644
486
456
504
570
565
431
486
478
616
468
481
513
624
509
463
508
565
560
446
486
508
618
468
478
510
624
484
450
500
573
564
442
488
508
615
462
482
505
627
501
457
507
564
571
447
490
508
628
466
479
508
625
516
441
504
557
587
432
494
502
616
467
489
510
625
504
465
499
551
554
434
480
513
612
480
490
506
617
498
470
505
568
576
433
485
505
615
477
485
507
619
501
458
504
567
573
442
491
511
617
470
478
510
616
505
461
510
568
565
449
487
509
622
460
496
503
621
503
462
505
561
564
442
490
504
599
479
478
513
621
515
438
507
549
563
437
497
503
610
472
483
508
617
505
462
499
568
574
444
491
502
617
478
478
514
615
501
456
498
580
588
438
491
499
620
481
479
511
625
503
460
504
570
558
439
486
502
618
473
480
503
625
502
457
501
565
550
446
494
497
614
484
481
510
622
499
453
501
571
566
446
489
499
614
478
482
508
613
508
452
504
566
605
441
488
503
606
479
480
510
617
508
454
500
565
569
451
488
502
612
484
488
506
618
505
460
507
566
590
438
478
510
601
482
479
504
630
499
460
503
563
585
448
486
504
613
486
482
508
620
510
471
499
563
582
467
476
505
623
487
476
508
617
510
456
503
565
579
451
486
503
602
477
478
502
627
513
462
501
559
580
443
483
503
596
480
479
506
618
507
462
503
554
577
446
487
499
620
499
478
508
622
506
458
503
560
582
440
491
489
603
477
479
498
616
517
456
502
563
582
451
488
501
607
486
475
510
619
518
455
503
564
580
455
486
498
613
501
478
512
622
500
465
497
559
574
451
489
496
615
500
477
507
622
514
459
501
568
591
442
486
494
616
502
480
514
613
514
459
497
567
588
445
489
496
609
483
476
499
619
509
462
500
563
582
455
486
498
605
497
477
510
609
522
453
492
560
572
454
485
490
600
502
480
505
615
514
452
499
559
584
459
485
491
600
497
480
510
615
516
451
498
558
582
456
483
494
611
504
484
504
619
513
458
502
542
593
454
484
495
612
491
481
515
610
518
453
502
555
585
453
484
493
606
497
474
535
599
528
460
499
553
584
457
490
477
607
501
468
501
624
496
444
508
553
589
457
478
496
611
490
477
506
622
525
454
505
556
591
456
478
482
609
494
469
523
618
527
458
497
545
595
458
486
490
607
501
479
501
622
526
453
500
554
591
458
489
487
632
497
477
503
583
527
455
495
544
593
456
483
493
612
492
472
512
601
533
453
498
544
597
449
487
494
620
483
474
504
639
523
457
500
548
591
461
484
492
615
490
469
505
610
537
449
503
544
591
462
490
492
612
489
471
505
604
538
467
495
538
587
461
481
488
612
487
478
505
625
538
457
497
540
597
463
484
497
602
483
480
501
606
535
445
502
544
598
466
495
488
613
484
473
503
597
547
446
498
538
601
462
482
495
619
489
473
508
595
540
454
498
532
618
448
486
493
610
490
471
499
605
537
455
501
532
597
459
484
498
616
489
471
505
602
542
457
488
531
604
463
480
502
613
473
470
499
597
539
444
497
530
616
458
489
500
613
493
470
497
603
544
447
521
521
618
457
490
500
609
498
476
501
607
551
439
507
524
615
458
485
509
610
502
465
503
596
546
448
502
552
614
465
486
504
595
499
469
501
598
557
449
500
525
608
456
488
511
616
495
470
496
596
546
451
496
523
616
459
487
515
617
475
466
499
586
540
447
499
525
616
466
484
515
615
494
463
493
602
558
441
499
517
636
451
483
508
615
494
466
505
591
568
450
498
514
612
462
484
521
618
488
446
504
591
558
447
501
524
610
471
473
512
615
495
449
499
586
558
444
497
511
622
459
487
508
623
491
471
520
568
556
447
495
504
621
463
482
539
615
496
464
495
580
563
444
493
510
614
451
488
521
622
492
464
501
596
559
448
497
512
626
463
498
515
612
496
460
498
584
558
443
500
509
625
463
485
513
621
494
462
503
585
565
444
496
508
629
468
487
508
615
498
464
496
583
563
449
495
507
620
462
479
516
619
494
468
506
585
559
443
499
501
645
457
477
533
609
498
456
507
580
558
449
495
514
624
465
484
518
613
502
460
497
579
562
449
494
503
621
465
480
511
627
497
462
507
577
559
447
497
504
618
466
484
512
613
498
461
500
570
566
445
486
502
630
465
488
509
618
485
457
507
566
581
443
488
510
625
465
481
513
614
503
453
503
565
562
441
486
504
620
466
485
511
622
527
448
502
579
559
439
485
510
619
467
486
517
624
498
458
502
571
565
450
479
511
616
478
480
510
631
503
462
501
564
572
454
485
509
617
474
480
514
624
498
461
508
566
574
442
497
502
609
480
481
501
620
502
457
491
562
602
437
491
504
606
471
473
512
622
510
457
504
563
581
447
484
505
609
490
472
513
610
508
452
513
561
577
444
487
504
610
491
478
513
614
506
464
497
567
577
442
486
494
607
490
479
512
613
514
457
499
543
577
448
490
499
607
500
479
511
616
521
450
502
566
576
451
489
500
602
497
473
512
611
507
457
495
587
575
457
482
487
603
504
473
509
616
508
455
501
557
579
455
484
491
603
505
477
509
611
511
451
504
568
604
447
485
498
600
501
478
511
599
518
454
504
557
584
457
483
496
606
497
479
507
610
525
452
494
557
572
454
481
493
607
501
476
508
617
529
452
503
555
590
464
485
498
602
496
485
503
621
532
454
500
558
591
481
479
496
608
495
473
505
613
524
455
502
552
597
460
485
486
614
499
474
494
613
524
447
498
545
598
463
484
492
607
497
490
511
617
524
455
501
543
602
454
477
493
607
498
471
503
613
530
457
499
545
602
452
489
488
606
499
473
502
599
539
455
497
542
604
452
488
490
609
492
476
505
611
533
454
504
532
605
460
487
506
609
489
474
504
608
540
454
502
536
602
454
481
494
623
485
490
505
595
542
445
504
534
598
460
491
499
591
491
473
506
593
551
451
493
543
602
456
484
499
615
486
476
501
594
535
459
495
539
603
463
486
492
631
482
471
505
590
544
452
495
539
605
457
486
505
618
490
477
508
587
545
454
499
528
615
454
491
499
609
532
492
502
598
550
448
489
522
606
461
487
531
605
478
472
503
575
562
445
496
522
612
466
484
513
618
492
467
494
596
550
445
493
520
616
463
492
515
616
487
472
502
605
552
444
499
527
623
458
481
528
614
496
475
490
593
553
445
497
517
615
469
482
517
614
497
473
500
589
556
446
499
512
620
460
488
522
609
502
465
496
604
547
448
494
510
617
455
486
518
612
501
467
508
580
559
449
496
508
625
460
487
513
616
501
459
492
613
554
446
495
505
619
456
484
509
626
489
457
506
589
560
445
493
507
625
464
489
512
613
501
457
497
591
552
453
494
503
626
456
481
511
620
497
457
503
574
562
449
494
506
623
462
486
517
617
495
459
502
574
602
433
481
508
633
455
486
514
626
493
457
496
570
572
451
490
505
629
470
476
505
623
500
468
507
573
567
450
485
509
624
464
482
504
621
503
457
501
575
566
443
495
502
613
470
478
512
623
500
454
501
571
576
444
478
497
620
462
483
505
622
499
461
498
564
572
441
492
505
611
471
476
516
612
503
458
500
569
571
447
494
502
621
481
481
506
619
501
459
493
564
575
443
493
501
614
489
478
507
621
505
454
502
566
565
459
489
491
612
492
481
518
604
506
457
496
562
571
451
490
503
610
503
478
510
614
511
450
505
556
579
458
480
498
601
502
477
508
609
506
455
504
567
582
450
484
499
600
496
483
508
606
526
453
497
561
571
455
486
498
603
503
478
507
607
497
457
503
556
591
455
481
490
604
498
473
507
614
533
451
499
554
588
457
482
493
607
501
477
509
605
536
452
496
553
595
462
486
492
607
497
476
504
606
533
448
499
543
579
459
482
486
605
494
472
505
615
531
452
495
546
598
459
482
490
621
493
473
506
600
541
448
504
539
612
458
476
492
608
490
470
502
605
532
458
504
537
593
460
500
500
608
490
471
505
603
539
455
501
535
594
464
487
497
607
487
487
498
603
538
448
497
535
599
452
489
498
608
494
468
502
595
550
447
499
535
593
458
482
506
613
486
469
505
586
542
458
497
532
598
460
489
505
622
493
464
505
587
554
444
505
527
602
464
488
510
611
493
472
499
571
554
445
498
524
613
461
486
515
614
492
474
497
588
546
446
497
518
613
472
484
505
628
490
468
503
608
539
453
495
512
615
455
483
516
625
493
463
498
581
571
445
499
518
612
464
480
512
614
496
468
501
582
543
445
493
511
624
458
481
515
616
493
462
498
580
559
446
495
510
622
457
489
512
612
496
472
501
588
577
431
487
511
617
460
481
510
614
500
459
502
577
560
449
491
512
616
463
477
510
619
497
468
497
577
574
452
493
507
617
467
484
518
617
503
461
500
575
568
453
485
507
617
467
484
520
613
507
455
502
581
576
464
484
505
612
472
477
502
621
502
460
503
574
570
436
490
507
612
470
489
512
618
519
453
511
562
578
447
503
502
614
482
489
509
614
503
456
503
564
586
444
488
504
616
484
478
505
615
510
454
508
555
585
449
490
496
605
476
474
507
619
511
458
502
557
584
452
487
503
605
469
479
503
624
509
454
504
562
587
456
482
498
587
495
486
508
614
511
452
508
557
588
454
485
494
599
510
481
507
613
517
455
507
558
600
453
483
495
627
498
474
510
616
521
457
502
555
594
453
486
491
608
499
478
508
623
522
459
490
549
598
456
481
491
608
482
473
505
606
535
461
496
547
601
458
486
485
602
491
471
512
601
532
449
486
541
601
459
483
492
610
506
475
501
590
558
447
482
540
587
466
483
494
611
491
475
506
598
539
446
495
540
596
471
485
492
608
491
463
498
597
537
447
495
536
601
454
492
499
619
486
477
502
593
537
448
500
527
613
463
484
498
643
490
468
534
576
538
447
500
525
603
451
490
504
613
491
465
502
590
551
449
503
519
607
463
483
519
619
492
466
509
588
552
449
493
513
617
464
485
517
620
493
468
496
590
568
444
497
515
624
456
486
520
604
495
465
498
567
573
443
496
509
629
457
484
517
616
495
464
502
582
565
446
498
507
628
456
482
510
621
496
458
499
629
552
449
493
510
621
462
493
514
618
503
460
496
579
565
448
492
505
619
450
481
518
614
499
454
520
570
577
424
552
497
600
470
478
498
636
479
457
507
573
554
437
494
499
626
459
489
504
613
490
460
512
559
572
432
488
497
624
460
479
506
609
506
457
508
558
562
449
487
498
610
469
476
504
619
499
455
504
557
584
476
467
507
598
483
475
504
615
507
458
495
561
574
451
491
496
612
492
475
506
619
507
458
504
554
583
445
468
509
593
504
484
506
616
513
459
495
541
592
449
485
501
598
507
475
537
624
518
450
499
549
569
448
513
484
608
502
467
510
611
514
451
505
553
583
453
484
488
610
495
472
509
602
521
451
499
557
586
458
484
499
608
493
471
502
611
531
454
499
546
590
467
481
483
617
490
470
505
602
532
451
498
535
595
460
487
485
586
492
472
504
596
524
453
497
539
598
461
485
490
608
496
470
503
593
535
452
493
536
602
462
485
494
628
488
473
502
589
528
451
498
536
600
464
484
502
614
475
472
505
584
538
448
491
529
601
468
473
500
616
494
462
500
581
538
442
499
518
615
458
482
507
614
494
465
500
583
555
436
501
515
603
460
483
517
612
495
455
503
587
552
442
496
509
626
456
481
525
614
492
463
502
584
553
438
494
511
626
465
483
512
618
494
477
495
567
546
446
480
505
640
465
485
515
615
499
462
501
584
552
444
486
502
638
466
482
513
613
499
458
493
571
561
443
490
490
