CH1
410
270
540
728
577
226
459
682
686
271
358
624
765
403
280
545
733
576
225
468
685
683
263
369
633
760
392
276
549
737
568
225
475
682
678
262
371
633
762
386
286
556
739
563
237
481
682
672
260
377
641
760
383
275
557
743
553
242
478
686
663
261
383
642
761
374
293
562
744
537
239
482
688
657
250
388
648
765
362
301
566
751
528
248
482
687
648
243
392
650
753
352
304
573
759
509
250
487
688
641
249
399
650
751
342
313
576
760
494
238
491
699
635
250
402
653
748
334
316
579
763
486
253
492
690
630
254
412
655
745
322
322
582
765
474
250
494
684
621
258
416
654
741
314
329
586
765
467
263
498
686
610
252
422
658
734
304
333
588
771
461
266
503
686
600
255
430
661
728
296
336
593
772
449
257
504
700
598
247
432
667
723
290
337
595
777
443
270
513
707
593
256
436
673
721
284
341
604
778
429
271
525
715
586
239
442
673
711
278
345
609
776
422
260
530
724
584
238
446
672
705
276
351
611
771
413
277
535
730
580
230
452
684
691
255
352
617
769
406
267
544
737
578
215
458
683
686
258
362
629
770
398
272
547
739
573
228
467
684
682
257
364
632
769
390
265
551
742
569
231
472
687
678
256
369
635
766
380
266
555
750
562
228
476
685
673
246
378
652
764
374
284
561
752
544
228
477
685
666
252
387
648
765
368
293
565
756
525
227
481
687
658
243
389
650
763
360
294
570
761
509
253
487
697
647
248
396
647
755
343
309
574
763
493
233
490
702
640
251
401
659
757
323
319
578
769
483
255
491
688
631
249
408
658
750
319
323
583
771
474
254
492
695
623
249
410
659
740
313
327
584
775
468
248
498
700
610
256
425
665
732
299
334
592
777
455
259
505
701
597
256
431
663
730
289
339
603
782
444
264
512
709
597
244
434
669
722
283
343
608
784
434
263
522
719
591
237
437
673
715
276
339
613
777
424
269
530
724
584
229
444
678
705
261
346
613
771
423
279
539
729
578
230
451
682
695
271
350
616
774
395
276
543
736
578
216
458
683
686
259
359
628
771
386
273
542
736
576
225
464
685
685
254
357
630
771
378
268
552
742
572
229
471
686
677
253
370
646
768
382
275
557
744
561
230
475
686
666
256
379
641
765
372
293
564
755
541
229
481
685
659
251
384
649
762
361
298
572
758
527
242
484
687
653
244
393
650
761
348
306
579
762
501
247
484
688
644
250
395
650
757
347
312
578
766
489
246
490
687
632
250
413
659
743
325
317
578
766
475
246
494
696
622
242
414
660
744
311
324
580
769
462
259
496
697
612
252
419
652
734
303
334
589
775
449
256
501
698
604
247
428
667
730
281
333
596
781
451
267
509
701
597
251
433
664
723
287
341
601
777
436
279
509
711
588
242
440
672
713
281
344
604
773
428
277
527
722
586
225
446
679
707
274
348
613
775
416
269
549
728
579
231
453
679
697
268
356
614
767
405
273
548
737
577
229
460
682
686
256
363
624
767
398
278
547
738
584
225
465
686
682
255
366
632
763
388
286
553
745
575
227
469
684
675
262
373
641
777
378
279
556
747
547
231
475
686
668
247
380
653
768
364
288
564
754
530
233
481
688
656
249
388
649
762
354
294
567
762
507
229
482
697
644
249
394
651
758
343
308
577
766
491
252
487
700
637
242
401
656
753
329
314
580
769
481
242
494
700
629
248
408
657
747
313
325
583
773
470
242
491
700
617
247
417
652
742
305
327
589
775
464
250
495
706
610
250
419
664
732
298
332
590
779
451
263
500
703
602
250
430
664
724
287
330
599
783
437
267
517
711
595
245
437
672
718
274
336
605
782
425
269
526
722
588
238
444
681
707
275
343
611
777
420
264
540
728
583
223
447
676
700
265
346
619
774
411
263
542
734
578
231
458
684
690
260
353
628
768
398
266
550
738
576
227
464
684
686
255
362
634
767
393
274
550
740
567
221
469
687
679
264
374
637
766
382
280
560
751
556
232
470
685
669
254
381
644
765
372
287
564
754
541
236
478
688
661
253
381
647
765
360
288
564
764
532
238
479
689
653
244
389
656
766
348
306
568
762
500
245
486
687
640
240
398
651
761
332
312
575
765
491
250
488
696
632
249
409
658
747
320
321
577
769
470
250
495
699
620
247
414
658
738
306
327
589
770
455
262
496
702
613
249
418
659
730
296
333
594
775
443
258
504
706
598
249
429
660
728
286
342
598
776
426
260
515
710
588
247
442
669
719
279
338
607
780
416
266
527
720
587
240
447
681
709
271
344
612
777
417
260
536
728
582
231
453
681
700
258
347
620
770
412
273
542
732
578
226
457
686
686
262
355
623
771
398
272
546
739
573
231
466
684
685
259
363
635
766
392
276
552
746
566
222
473
687
675
259
372
643
767
381
289
552
751
554
234
474
689
670
257
378
646
765
372
294
562
754
533
233
481
686
656
256
389
654
764
345
294
568
758
508
247
485
690
647
245
398
654
756
334
309
578
767
490
250
491
695
635
242
404
654
752
326
318
580
769
477
250
489
696
626
250
412
671
741
307
327
587
774
467
256
495
702
618
247
420
660
738
291
328
587
777
457
260
503
698
605
252
429
669
732
282
334
598
777
443
265
510
708
597
252
438
669
728
281
336
603
779
433
265
523
716
586
239
440
671
716
277
339
611
775
421
273
534
721
582
222
452
677
704
263
348
617
772
414
272
537
730
579
229
458
680
689
256
357
627
770
402
271
544
736
576
216
462
684
684
260
369
633
764
393
279
552
742
568
220
471
687
677
240
371
640
767
381
279
557
749
555
229
475
685
666
243
378
645
767
371
288
564
755
533
242
480
684
654
249
383
646
762
355
298
568
759
512
235
485
690
646
247
393
650
765
344
309
572
760
493
245
492
700
639
253
398
649
753
328
314
579
765
483
252
491
697
624
246
411
656
745
315
328
585
770
468
257
498
703
614
251
420
663
734
301
336
587
774
454
263
506
685
605
260
430
661
724
291
336
596
783
443
265
513
690
596
255
441
677
714
283
343
603
776
424
258
526
720
585
243
446
673
709
272
344
612
776
416
273
533
728
578
223
456
677
688
267
354
623
772
403
283
542
735
577
223
463
686
686
261
362
633
762
393
264
551
734
568
225
470
686
680
258
371
639
760
386
280
558
741
559
226
473
688
668
253
377
645
759
373
279
565
748
541
230
483
686
657
251
383
647
759
360
292
569
756
516
239
486
689
647
239
395
650
756
347
305
574
761
495
241
493
691
636
254
406
653
752
333
317
575
768
480
247
497
684
626
258
411
655
746
315
329
588
765
465
256
497
702
614
242
422
662
733
304
335
594
773
458
268
503
707
599
241
430
671
731
291
333
598
779
440
267
510
709
595
242
438
677
723
284
343
604
776
428
272
523
714
586
249
445
675
714
276
344
611
773
419
271
534
719
579
233
455
672
699
268
353
621
766
410
275
544
734
574
221
459
674
687
270
359
629
760
398
285
548
737
571
229
471
679
678
262
367
638
760
387
282
553
744
561
233
477
687
668
256
377
644
762
373
276
563
748
542
238
481
686
654
251
390
647
762
358
290
568
753
517
246
486
690
642
240
396
651
758
342
315
573
758
496
255
496
687
635
253
401
654
749
330
318
578
765
482
251
496
684
625
246
410
658
740
318
330
582
770
468
257
501
709
615
245
422
666
731
302
332
592
774
453
265
503
691
600
241
430
675
725
289
340
600
783
440
268
515
702
589
246
437
677
717
283
344
603
777
423
268
526
716
581
236
450
671
702
275
347
610
772
415
269
541
724
578
228
458
680
686
260
355
630
767
401
281
544
736
574
219
466
683
682
246
365
636
766
389
278
550
746
569
218
474
687
675
254
375
646
766
375
271
559
748
552
229
480
684
668
261
382
650
763
361
295
567
761
532
233
481
688
659
246
386
655
760
351
306
572
765
504
234
488
689
646
241
397
654
750
339
315
575
766
482
238
495
695
636
252
402
658
747
317
325
587
773
469
257
501
685
615
244
421
671
732
294
336
588
778
453
268
510
706
603
243
437
672
725
277
337
601
780
438
261
512
702
594
243
441
674
719
283
341
607
778
410
269
528
723
584
227
448
678
705
263
345
617
778
412
284
542
730
578
227
456
681
689
267
364
627
771
398
269
552
740
570
227
465
685
686
261
366
625
769
375
279
553
743
561
228
471
686
675
251
372
641
770
375
281
558
753
562
232
480
686
667
245
383
655
764
363
281
566
756
532
235
485
687
653
242
391
648
763
353
310
581
763
504
247
490
689
640
239
400
657
756
330
313
589
761
484
247
499
690
628
245
409
665
744
306
325
587
773
474
245
490
706
621
241
422
662
737
309
334
588
776
449
265
506
696
599
247
430
672
729
292
341
603
783
439
260
513
707
595
248
440
667
721
283
341
602
774
415
278
531
716
586
237
451
679
704
274
348
619
777
417
268
537
726
579
215
453
680
690
263
352
620
766
407
284
550
735
574
222
465
685
681
248
366
632
765
392
278
554
742
564
233
472
686
671
255
373
641
762
377
278
560
747
547
234
485
688
660
249
380
646
767
338
292
569
758
526
240
484
687
649
251
391
656
761
345
310
576
761
500
245
496
687
637
246
404
663
751
326
321
578
771
481
250
495
688
629
248
409
667
741
312
329
582
779
463
258
501
697
614
246
422
660
729
309
337
592
778
452
268
509
702
603
249
431
667
725
287
339
607
779
429
269
523
717
587
240
443
674
719
277
346
614
774
419
270
534
727
581
219
451
670
697
266
351
619
769
419
284
544
734
573
223
462
675
689
262
359
630
765
384
271
551
742
567
227
474
685
677
252
372
643
765
374
281
559
749
551
221
476
686
668
246
381
646
767
367
290
566
754
530
216
482
701
650
244
390
651
765
353
305
571
761
499
244
487
701
642
240
399
654
757
333
313
583
762
482
238
495
687
627
259
412
658
742
312
326
592
771
466
257
500
711
613
248
418
660
732
293
331
597
779
450
258
506
707
601
241
430
669
731
283
342
599
787
436
263
520
720
587
236
440
673
713
271
344
614
776
402
267
541
725
571
225
455
684
690
261
355
627
768
396
260
550
742
574
224
464
688
686
251
363
635
765
389
277
555
745
561
222
473
687
677
244
375
642
767
376
272
561
750
550
236
483
686
666
242
384
645
768
355
296
580
757
521
236
487
701
648
244
396
656
761
338
306
583
767
494
228
493
703
631
243
407
658
747
321
323
588
767
474
246
499
701
618
245
417
664
739
301
328
589
772
457
265
502
714
608
246
427
669
729
288
339
603
780
434
263
509
710
595
244
440
675
716
278
340
608
780
416
273
527
723
583
231
449
678
709
269
350
611
774
406
265
539
731
577
216
467
682
687
260
353
626
769
399
284
547
741
572
220
471
685
683
249
367
638
768
382
272
559
743
556
229
479
686
671
246
382
650
766
369
280
571
753
543
234
487
687
658
249
386
651
762
348
293
580
761
504
237
498
687
643
240
397
657
750
336
316
578
763
484
246
496
686
627
243
416
661
746
314
324
588
772
454
247
501
701
615
246
423
666
733
298
329
593
777
440
249
512
705
601
241
434
669
725
282
341
607
781
427
264
523
717
589
238
442
676
712
273
340
613
778
423
260
528
726
579
220
451
680
695
262
353
623
772
401
268
539
742
572
218
467
683
687
258
361
631
763
391
279
553
745
564
231
473
684
673
248
375
646
765
381
284
570
751
545
236
483
686
658
247
383
652
758
358
284
572
758
518
245
487
687
647
243
396
655
755
340
302
575
766
495
236
494
702
635
246
404
658
747
322
320
583
772
479
248
503
692
620
242
421
662
737
307
331
591
779
452
259
506
702
608
247
428
670
726
293
335
603
782
426
264
519
712
593
244
443
675
715
276
342
609
779
410
270
533
725
586
234
449
677
696
266
345
621
771
396
273
544
737
573
228
456
684
686
260
356
631
766
397
280
551
741
578
230
468
684
679
249
369
638
765
378
286
559
746
554
232
480
688
663
248
378
646
764
367
287
565
758
530
239
483
686
655
244
390
649
763
345
302
580
761
498
231
493
707
644
246
399
656
758
329
314
586
766
481
244
498
691
625
248
409
662
747
308
325
588
777
465
258
502
708
610
244
419
668
734
294
334
592
784
452
260
510
707
598
244
433
670
727
281
339
600
784
434
255
525
721
588
234
440
680
714
273
343
612
780
404
269
537
732
584
225
455
678
686
259
352
626
773
387
264
548
742
580
226
463
684
684
259
365
637
770
372
278
553
746
562
230
470
687
671
250
375
648
768
365
291
563
751
541
236
482
687
657
244
386
647
764
359
297
565
763
508
240
493
692
643
244
394
655
760
338
310
573
766
488
236
503
702
629
249
405
659
747
317
325
582
771
468
247
496
706
616
245
416
667
735
294
327
596
778
458
252
505
714
603
248
427
671
726
283
336
606
788
434
268
521
713
589
236
440
677
720
270
340
616
779
418
264
536
734
582
218
454
680
701
261
352
623
773
399
278
545
747
575
213
464
683
685
253
357
629
770
391
266
549
748
569
230
471
685
681
248
371
646
767
365
280
564
750
547
222
479
699
664
243
383
651
770
345
287
569
764
514
242
484
692
651
241
397
657
755
326
304
579
767
491
235
492
702
630
241
404
663
752
319
318
585
775
472
254
495
712
619
244
419
659
741
302
329
585
781
450
260
500
711
609
238
430
669
736
292
332
597
780
438
260
514
714
591
247
439
675
720
278
339
609
782
425
263
531
729
578
225
448
675
707
266
348
626
776
409
271
543
732
574
222
458
681
686
254
358
634
768
393
266
548
743
570
228
470
687
683
251
369
644
766
380
277
556
748
551
234
480
685
661
243
388
648
764
369
291
572
760
521
231
486
686
648
245
396
656
758
337
306
581
764
496
243
490
708
637
244
405
661
749
312
319
585
769
470
256
497
705
624
237
417
660
739
295
331
591
775
457
265
504
704
605
241
428
667
737
287
332
600
779
441
265
514
704
594
243
432
668
724
284
341
598
776
428
261
526
722
581
232
450
677
707
274
347
612
775
414
282
540
731
574
224
460
682
689
260
359
625
767
398
283
549
737
573
208
468
685
682
253
370
642
764
384
277
555
742
559
232
477
685
667
252
380
649
768
366
292
568
751
540
229
476
701
654
245
386
654
764
353
297
572
763
510
234
487
684
640
251
398
656
757
343
314
579
768
485
243
496
701
630
248
407
658
746
308
324
585
773
468
257
501
690
623
249
422
664
734
290
337
594
779
453
254
507
705
605
242
432
670
719
280
337
599
783
437
270
520
709
589
244
441
674
712
279
348
610
778
415
270
530
724
589
226
451
678
694
273
350
612
771
403
282
543
738
577
220
458
683
685
260
360
631
766
391
276
553
738
569
229
468
686
677
255
372
642
763
379
286
557
747
551
229
480
685
666
247
385
662
765
357
295
567
758
529
228
484
686
652
248
382
654
759
344
305
571
765
497
248
494
700
638
239
402
657
753
334
318
581
774
475
253
496
689
626
251
412
661
745
305
330
587
772
461
252
501
702
613
246
426
666
727
292
335
589
780
446
267
512
706
597
248
435
673
720
282
341
603
780
425
265
527
718
587
235
444
677
709
261
344
614
779
414
274
533
727
577
226
453
681
691
261
357
620
774
399
277
546
741
576
228
466
683
682
258
367
629
764
385
275
556
747
564
227
468
687
671
246
379
646
760
374
292
563
748
542
237
483
687
665
245
390
652
761
348
294
569
760
513
244
490
688
647
244
399
661
755
335
311
578
765
500
252
497
695
635
246
406
659
748
325
321
580
769
475
252
500
700
615
245
415
659
737
312
330
591
772
458
260
502
705
602
247
426
666
728
291
337
609
777
440
254
512
706
593
245
438
669
718
273
341
609
780
431
270
529
722
581
230
450
678
708
263
349
615
777
414
275
544
731
573
230
459
679
685
268
361
630
763
394
272
551
743
570
227
470
685
682
255
371
631
761
369
262
556
746
560
223
476
687
670
251
376
641
768
370
282
562
753
550
230
481
690
658
242
389
654
767
352
291
576
757
512
238
491
687
643
247
404
663
755
329
313
580
761
488
242
495
688
628
248
411
666
748
322
325
578
769
472
255
495
690
614
244
425
664
740
300
335
595
774
446
263
503
708
602
248
430
662
730
290
341
595
774
440
262
513
712
588
245
441
670
717
275
347
603
779
425
267
533
724
584
234
448
681
702
264
352
623
772
412
266
543
729
572
227
459
683
690
253
362
632
769
380
281
548
742
571
214
466
685
683
254
361
643
765
382
273
556
745
558
228
477
685
666
241
376
650
768
372
282
564
757
540
225
483
686
655
250
388
658
758
357
294
573
760
510
234
486
689
644
244
401
661
752
326
310
574
764
488
245
494
697
633
250
409
660
746
323
327
585
767
470
255
498
687
618
248
417
669
736
303
330
597
776
459
264
505
700
603
247
432
673
725
301
338
603
779
439
270
510
710
594
249
440
672
720
285
338
608
779
422
267
526
725
583
228
448
674
697
251
345
616
775
409
282
537
731
576
223
457
683
694
255
357
625
765
398
269
547
735
574
223
466
688
685
242
366
632
763
388
279
554
745
562
236
474
684
675
250
370
648
763
376
284
564
749
540
233
481
687
661
252
385
647
763
357
300
570
760
514
238
490
686
647
251
400
649
757
341
307
574
764
492
247
495
685
635
251
409
664
746
321
320
583
770
473
253
499
696
620
241
416
665
737
307
330
592
774
462
259
498
697
610
248
428
675
725
296
336
598
776
445
258
506
708
596
242
435
666
721
285
336
603
779
427
275
524
722
586
231
446
669
712
282
347
613
780
418
275
535
728
582
225
452
677
690
262
355
622
774
403
282
545
731
575
213
463
681
686
248
363
632
767
386
281
553
740
570
229
472
687
678
243
372
639
769
376
283
559
748
554
231
483
687
665
240
381
648
764
361
286
570
755
530
236
484
689
649
247
393
657
758
350
304
569
761
504
233
492
699
637
243
401
656
754
333
316
574
768
482
250
496
685
625
256
409
656
744
313
327
586
773
465
249
498
687
615
245
422
681
731
299
333
592
778
455
258
503
701
607
247
432
666
724
301
338
598
780
436
274
516
708
592
242
435
674
710
284
343
608
778
421
267
531
722
582
233
447
674
698
279
349
615
772
407
276
542
730
575
231
460
678
685
253
361
628
769
397
279
546
736
572
218
468
688
683
247
367
638
761
383
276
556
742
563
221
478
685
673
241
371
647
765
370
291
563
747
543
235
479
685
656
245
386
651
762
355
300
572
764
512
226
488
701
645
245
392
646
760
342
307
575
762
494
248
492
701
637
252
405
660
748
325
319
582
769
476
247
501
697
630
245
416
660
734
310
330
589
774
457
258
500
701
609
239
429
676
727
292
336
601
781
436
262
516
713
594
241
442
678
722
276
341
610
780
416
265
530
724
575
235
451
680
709
267
349
623
780
399
269
543
745
567
225
461
685
687
253
361
634
775
385
274
553
749
557
213
469
687
685
234
377
642
770
375
273
571
753
548
208
484
688
672
230
375
651
769
357
272
570
761
538
235
485
706
658
228
385
662
766
343
287
576
764
520
227
492
711
646
236
398
661
764
331
306
581
768
495
239
494
712
634
232
406
659
755
316
317
586
772
478
233
502
714
629
237
410
670
749
310
327
591
774
461
250
506
709
610
235
418
673
740
293
334
600
776
450
262
507
718
602
236
432
677
727
281
341
604
778
438
261
519
719
590
235
440
678
719
273
345
606
777
423
267
532
729
580
238
446
683
706
263
351
619
780
406
272
540
732
569
225
454
685
691
260
353
624
775
401
277
544
732
566
229
463
681
685
264
358
625
763
390
275
551
738
569
234
471
686
673
259
374
641
762
383
284
555
742
560
237
474
686
667
261
383
638
762
380
294
561
743
541
239
480
686
655
258
389
641
758
365
303
565
748
526
236
484
684
646
259
395
646
752
346
316
572
747
509
257
489
686
641
263
399
642
744
352
325
567
749
491
263
489
686
626
269
415
645
732
331
333
585
750
475
265
494
683
616
270
419
648
724
327
337
583
755
470
272
496
685
607
273
427
650
711
319
338
583
762
458
282
504
685
599
272
433
652
711
312
342
591
761
441
277
512
685
586
261
440
668
698
302
354
596
754
440
290
522
688
585
255
447
660
692
292
360
597
733
482
299
524
710
588
246
451
652
685
290
367
609
740
422
294
545
713
587
254
454
662
680
294
370
610
744
422
300
538
704
584
266
463
670
672
283
376
613
740
418
302
539
708
586
261
462
662
663
303
377
612
748
417
308
539
698
561
267
466
652
656
306
378
605
745
427
313
533
687
558
283
457
648
660
322
376
599
740
427
319
528
687
551
284
454
638
652
326
384
598
735
412
328
530
709
544
285
450
633
629
326
425
586
727
361
361
527
737
532
305
453
624
631
332
396
613
732
391
331
538
733
523
295
469
632
630
324
406
611
723
361
335
533
740
505
293
485
648
622
294
414
620
716
360
339
550
739
473
285
497
669
623
277
419
630
702
340
343
567
739
467
298
509
678
620
262
435
638
683
328
355
572
740
461
297
510
681
615
268
444
638
686
320
359
593
736
478
307
518
683
612
272
455
639
680
320
367
588
740
468
311
503
684
598
274
447
639
682
323
363
595
745
458
313
524
684
573
281
452
640
675
319
372
591
743
436
311
528
686
561
280
457
641
659
322
379
594
743
433
322
527
697
552
288
455
634
650
327
387
600
733
408
331
538
716
546
294
457
629
644
328
387
604
732
379
331
533
727
532
304
451
626
634
325
395
622
729
384
329
536
733
518
298
476
634
628
323
404
611
722
359
331
539
738
504
299
485
640
629
299
410
614
719
371
335
541
732
504
289
495
654
635
293
419
614
703
356
338
551
732
494
295
498
658
644
280
424
613
689
355
347
567
728
487
309
492
664
656
280
431
619
684
349
351
584
731
477
319
501
665
648
278
437
631
686
341
356
581
738
473
315
505
667
620
277
440
626
683
338
361
584
743
463
303
516
676
585
285
445
622
673
327
367
592
747
444
311
516
687
566
278
456
633
661
330
374
585
740
427
322
527
687
546
291
450
628
655
333
376
593
737
420
322
525
715
543
285
446
619
649
339
384
586
732
404
326
521
725
547
294
446
615
643
340
395
598
731
400
325
527
732
535
299
446
623
635
330
397
608
728
387
326
535
732
521
296
460
637
628
307
405
609
723
398
330
543
734
510
301
480
647
630
289
410
616
713
364
337
548
729
498
301
497
653
647
278
417
610
698
355
340
562
726
493
310
501
656
646
274
426
623
692
349
345
570
731
485
311
507
660
648
276
428
621
685
328
352
574
737
481
307
513
662
636
286
437
625
685
339
354
577
742
477
311
507
668
630
273
440
619
676
334
359
581
750
464
309
509
678
611
289
444
625
671
325
368
584
741
448
312
511
686
596
282
450
625
662
342
372
573
735
430
318
517
686
569
296
441
620
653
328
379
589
734
419
319
523
711
537
299
443
619
645
344
386
592
731
405
324
527
725
527
301
450
619
636
335
394
596
728
397
328
529
730
507
302
460
631
634
320
396
600
727
385
330
539
731
501
302
477
645
631
304
406
605
717
375
330
547
726
507
296
482
647
640
288
412
608
710
363
334
554
724
496
302
488
652
645
287
419
613
702
352
335
559
732
489
313
492
657
652
287
427
616
687
348
345
567
736
497
315
489
662
647
290
432
622
686
340
348
574
737
488
317
495
665
632
290
435
623
681
339
357
578
743
481
310
499
670
611
280
441
622
683
336
360
584
751
467
310
498
675
593
288
442
621
668
337
372
586
741
448
311
523
687
577
285
444
620
665
341
372
585
736
429
327
529
685
564
300
443
612
655
339
381
587
732
416
322
536
711
553
295
442
616
648
341
384
592
736
404
325
537
723
540
305
454
617
638
341
392
599
731
400
327
531
730
545
296
464
628
634
328
402
602
724
389
324
535
730
535
308
475
638
629
301
407
608
719
372
331
542
728
526
294
480
650
636
294
414
608
710
363
335
550
724
516
297
487
659
644
286
422
607
705
356
344
555
724
482
307
488
658
649
280
423
616
693
349
343
568
731
472
326
511
658
641
284
433
617
686
344
351
571
733
468
309
506
664
637
288
437
627
686
340
356
575
740
460
314
509
668
617
284
438
629
682
341
362
580
748
465
306
512
677
601
283
442
626
674
335
362
583
743
457
307
513
685
583
284
445
622
668
338
370
581
735
438
316
516
687
571
286
439
617
658
340
376
585
735
434
326
507
689
561
292
441
611
650
341
380
590
734
419
325
515
714
553
299
443
614
643
342
387
593
730
408
333
517
725
539
298
448
617
639
343
396
600
731
403
329
523
728
524
301
460
632
634
326
401
600
726
391
328
542
726
521
298
469
637
639
297
406
600
717
383
324
550
724
517
303
481
640
646
294
402
597
715
377
337
561
722
511
306
482
652
654
292
414
600
704
366
337
562
722
509
307
485
650
657
298
421
619
692
355
345
559
727
524
315
491
649
657
292
428
619
688
354
353
560
734
506
313
496
650
648
289
429
615
684
349
347
563
738
505
315
504
653
632
284
435
617
681
351
353
567
742
488
298
501
670
613
295
435
617
678
336
360
573
740
455
312
509
679
594
292
437
622
673
339
365
580
740
437
311
510
687
581
291
432
622
668
350
368
578
743
425
318
510
688
573
304
434
598
659
353
373
579
737
418
323
505
689
574
298
429
595
654
363
377
578
729
418
325
507
709
563
305
434
595
647
360
379
580
732
410
325
514
720
544
303
443
605
646
359
392
573
726
399
325
515
727
542
301
456
616
647
327
392
583
726
393
324
525
721
541
307
465
622
646
306
399
592
724
379
333
523
718
531
306
469
629
662
294
402
587
722
387
320
540
715
526
323
491
644
677
302
407
588
706
369
328
545
721
521
309
480
643
684
305
400
607
705
366
340
574
735
524
318
484
635
668
287
419
607
695
351
339
573
737
515
312
492
640
662
286
420
610
691
352
365
579
747
507
310
488
640
638
297
426
604
683
339
346
565
751
483
290
491
653
623
299
448
620
686
343
355
562
738
479
302
498
668
608
295
425
604
684
344
352
558
742
472
337
502
682
602
296
417
595
673
353
363
558
735
473
320
499
684
590
305
426
592
672
358
364
565
735
447
339
507
687
583
298
421
579
660
361
370
559
735
439
321
499
696
574
310
426
587
656
359
378
571
733
417
321
501
714
560
307
438
599
648
356
386
576
729
402
325
506
720
547
308
442
604
649
334
388
598
727
415
322
516
718
545
294
455
612
654
314
390
597
721
402
325
527
712
538
307
463
622
663
307
404
579
715
399
329
548
710
533
319
474
629
673
273
404
587
709
390
344
547
719
511
325
475
636
681
304
410
601
719
382
339
550
719
532
318
476
617
674
295
408
597
713
386
347
538
728
534
312
481
624
674
300
418
592
685
366
353
546
740
501
318
509
628
661
292
424
603
694
368
353
555
740
501
300
490
642
644
320
433
587
684
366
362
553
736
496
313
491
660
625
284
435
599
671
373
357
554
739
500
319
493
672
605
310
433
595
681
374
359
561
735
469
316
493
671
573
303
416
589
667
374
360
560
723
459
320
500
683
592
339
414
593
672
380
369
561
725
453
329
494
687
606
308
422
580
659
376
372
565
729
440
324
505
685
543
349
436
589
664
390
373
560
724
413
312
508
720
557
320
447
598
666
360
381
577
727
426
328
510
719
552
309
448
598
649
324
398
582
724
419
328
512
714
554
308
453
609
657
312
395
574
720
412
331
521
712
545
311
477
622
666
301
397
578
719
398
337
531
699
535
324
468
623
670
298
397
586
710
390
332
540
709
534
329
472
628
663
304
404
589
705
385
339
539
724
527
324
488
624
681
307
410
593
699
378
341
548
729
525
334
479
623
693
305
415
600
690
373
347
548
735
516
310
481
633
687
295
422
594
686
368
351
553
738
514
302
483
642
642
299
421
598
683
370
348
569
737
496
310
487
650
623
296
420
595
681
372
354
576
738
483
314
491
659
611
305
421
592
678
376
358
557
732
472
326
493
672
598
314
421
582
670
370
362
557
733
482
329
495
685
594
307
420
578
666
378
368
559
731
456
325
494
685
579
312
423
574
656
383
376
561
732
440
323
497
692
571
308
427
579
655
376
377
572
729
416
324
497
707
561
312
439
589
652
361
385
574
728
432
321
506
716
557
315
444
599
650
344
385
575
725
422
330
509
711
549
310
458
611
654
325
392
560
718
411
328
519
709
543
315
463
616
664
307
395
579
715
382
331
524
704
542
321
465
621
674
303
400
575
713
395
332
532
719
539
325
467
623
680
300
405
572
709
385
336
538
717
533
333
471
622
683
305
408
595
698
377
339
546
723
529
330
475
621
675
301
416
597
689
377
340
551
725
522
330
484
627
670
303
417
599
685
363
344
551
733
515
313
485
635
649
300
425
612
686
371
348
552
738
505
312
490
648
631
293
429
608
685
374
355
555
737
492
313
491
656
620
298
427
589
677
364
354
559
731
479
320
491
666
605
299
416
592
682
391
361
570
735
468
318
494
678
603
307
417
568
665
374
367
561
729
457
326
492
684
589
312
419
574
666
378
371
561
732
450
324
494
687
582
311
422
573
667
366
374
564
731
445
323
498
701
573
311
428
583
657
384
378
569
724
439
322
499
713
562
317
438
595
653
361
386
574
726
427
321
500
715
548
308
451
601
661
337
382
581
728
428
322
505
716
550
319
453
600
654
318
391
578
718
429
329
520
712
546
314
460
610
662
313
402
580
714
388
327
527
709
540
317
465
619
672
309
398
590
709
403
329
538
715
533
323
468
624
683
304
405
578
704
396
331
535
717
534
314
473
626
681
300
413
587
698
384
338
537
720
550
334
473
623
679
305
423
596
692
381
340
553
731
523
327
480
621
673
304
421
596
684
361
339
552
729
518
315
485
631
655
306
421
598
687
378
349
552
735
511
324
485
636
647
303
423
598
685
369
345
559
737
497
306
481
653
628
297
427
596
686
373
358
563
737
475
310
489
662
612
307
425
585
680
372
357
558
730
480
321
493
673
605
312
422
586
676
374
367
572
735
480
322
490
676
592
303
417
579
669
377
363
561
728
461
328
510
684
588
314
417
572
664
379
365
563
732
449
324
512
684
578
319
420
576
656
375
377
566
728
420
331
496
691
569
313
427
579
654
379
382
570
731
448
324
494
711
560
307
437
584
650
367
382
576
724
430
328
508
710
547
318
444
594
652
344
387
579
723
427
323
511
714
546
312
454
602
651
330
388
577
721
419
325
517
710
545
314
459
613
661
320
394
576
721
405
332
531
707
560
315
459
613
670
314
402
573
716
398
328
529
692
546
325
474
622
678
308
409
580
709
393
338
538
706
512
323
464
621
679
305
408
585
706
385
333
558
719
532
322
472
628
682
300
411
588
696
382
338
539
724
545
332
476
624
677
304
417
591
699
373
340
547
731
521
331
498
630
670
299
418
597
687
373
342
547
727
534
325
487
630
653
306
423
596
687
377
344
552
735
510
310
485
641
640
310
425
595
685
372
348
552
733
481
311
489
648
624
308
427
597
684
373
356
554
732
493
314
483
661
640
303
426
590
679
374
358
557
732
478
322
496
670
605
311
425
584
676
373
363
558
733
466
326
496
676
597
308
418
575
666
371
370
566
733
454
330
487
682
592
318
422
581
665
379
372
561
728
455
328
494
684
596
318
422
585
661
374
371
563
724
439
329
509
689
575
316
421
587
658
371
374
570
733
436
322
499
703
571
323
428
588
656
377
379
571
731
427
324
491
707
560
316
437
586
650
359
383
573
726
429
327
503
715
545
304
447
600
647
332
394
577
725
423
327
524
711
547
308
456
606
650
316
394
579
720
394
334
518
708
546
315
459
614
662
317
398
572
719
406
328
515
701
543
313
467
615
669
306
399
567
713
395
330
533
700
514
324
469
623
676
308
406
592
709
393
333
539
702
535
326
467
625
679
308
407
595
704
369
338
542
714
533
333
470
624
679
303
411
593
697
385
338
537
723
529
329
475
622
683
305
414
586
698
382
340
550
725
505
329
476
622
674
306
414
598
686
359
343
541
731
536
312
485
627
661
303
413
599
687
364
343
547
739
516
310
486
635
652
305
421
592
685
367
346
565
736
505
308
486
640
635
308
427
592
685
372
351
549
734
504
309
478
681
627
307
435
592
671
367
339
595
738
476
321
492
646
602
316
399
604
676
387
354
536
733
477
316
496
667
608
309
417
582
673
378
357
567
735
471
320
484
686
595
315
416
581
667
354
371
559
734
494
326
492
674
597
315
418
578
665
374
364
546
728
457
327
493
685
588
313
426
561
662
395
362
570
731
447
327
496
685
578
317
423
571
659
377
371
567
730
448
326
495
694
572
325
429
582
652
375
379
573
729
448
325
499
711
566
313
436
584
648
369
385
565
726
440
327
505
708
559
316
441
580
655
356
386
570
726
438
327
504
710
555
315
451
595
655
347
388
572
723
418
326
510
712
552
316
453
601
658
323
393
570
717
405
335
515
705
547
323
459
606
666
310
396
574
717
396
328
524
697
543
320
463
611
674
314
398
576
704
387
340
529
700
542
324
465
617
678
310
408
578
703
389
332
533
706
542
330
473
616
683
314
408
581
702
399
337
536
717
538
341
470
614
684
301
412
584
695
393
339
539
719
535
325
478
618
680
311
413
590
687
385
339
545
726
530
326
480
616
671
304
423
587
686
384
346
538
733
527
328
482
625
661
306
417
592
688
382
346
551
731
522
312
483
629
651
305
420
589
685
378
352
543
734
512
315
485
641
641
311
425
593
684
378
351
544
737
506
315
487
644
629
308
425
587
683
376
352
562
727
499
321
484
649
616
312
424
583
679
387
356
567
733
492
321
484
655
607
313
420
576
672
379
360
565
724
480
331
488
667
604
314
420
573
672
383
367
566
726
472
328
487
672
600
316
416
566
666
385
367
564
726
465
335
489
680
596
324
420
559
661
386
370
559
723
463
331
487
685
588
314
418
564
659
389
371
561
727
451
330
495
688
580
325
423
573
653
389
375
563
726
452
330
490
687
570
321
425
549
639
376
379
554
728
469
340
509
699
565
328
434
553
655
369
384
557
727
442
331
499
689
544
320
445
584
644
352
386
566
723
442
321
504
706
557
316
447
593
650
353
395
567
723
429
329
509
702
554
322
450
591
656
330
395
568
718
408
333
515
692
550
324
459
604
661
327
398
564
709
404
334
521
690
548
325
459
606
664
325
403
566
705
395
337
528
689
548
328
459
613
672
323
402
566
702
387
338
528
687
542
316
465
610
680
323
409
573
697
394
340
531
689
542
341
470
614
681
316
411
580
692
391
343
531
701
537
336
475
613
681
319
411
585
688
368
348
540
712
538
321
460
625
683
324
434
612
692
389
342
529
716
533
324
479
603
667
311
411
605
686
397
351
542
728
528
302
472
618
660
297
426
612
685
401
354
546
733
528
315
475
619
643
317
420
585
682
387
353
545
727
511
301
467
633
634
315
450
599
687
395
356
531
723
503
314
469
654
631
314
432
589
677
367
347
557
730
504
333
489
640
612
308
405
575
675
382
360
583
737
496
339
478
621
592
310
429
575
676
410
376
536
726
443
321
480
684
617
334
409
571
659
382
367
565
730
476
323
473
673
606
338
436
566
659
385
368
591
723
466
341
488
641
581
324
423
563
661
401
372
577
718
475
336
508
693
592
327
404
554
649
383
370
580
735
478
328
486
684
582
329
436
564
643
405
382
543
715
450
323
485
685
577
326
433
574
652
391
385
544
723
482
334
487
720
573
323
442
571
648
373
387
556
714
443
324
511
690
560
335
452
590
655
363
392
571
708
449
338
499
702
553
330
435
582
650
341
393
576
723
435
332
502
719
560
324
442
592
646
339
393
568
718
408
330
497
685
554
327
460
599
665
333
407
562
711
423
334
510
688
588
339
458
604
665
325
399
562
696
410
337
536
686
546
327
444
600
671
309
409
571
701
381
348
535
686
551
345
463
616
684
325
412
590
698
375
351
535
686
547
344
459
603
684
320
414
579
694
388
340
529
690
543
344
467
609
680
329
416
592
695
386
344
541
686
539
346
473
603
678
322
410
571
685
377
353
532
691
534
332
485
613
678
319
420
583
686
376
352
541
708
526
330
484
619
666
319
422
579
682
388
352
542
724
501
325
483
620
654
323
419
581
687
391
359
540
723
529
326
478
625
641
317
425
583
681
397
358
535
721
511
324
484
633
627
322
427
577
677
388
358
525
721
506
324
483
640
626
321
422
573
675
391
361
544
725
470
332
483
652
615
325
418
576
672
393
365
541
708
513
328
476
653
605
324
412
592
677
404
359
575
731
480
332
498
667
600
330
414
553
667
391
368
536
719
476
337
485
667
595
324
411
562
659
385
368
561
727
449
337
486
675
594
326
412
560
658
395
370
570
726
449
333
492
683
592
330
419
560
652
393
380
543
721
457
335
490
686
584
331
422
564
649
403
381
561
708
451
333
496
687
577
337
425
570
644
391
383
568
717
450
336
475
685
565
324
436
576
645
383
387
558
717
438
335
500
685
565
322
436
581
648
350
385
572
715
448
331
499
686
562
325
447
576
645
351
399
581
719
453
337
502
686
556
322
453
594
651
335
389
557
709
444
336
509
687
550
321
456
582
640
328
397
587
715
421
350
515
701
546
333
456
615
675
325
409
561
717
390
340
531
692
545
330
460
600
672
325
402
574
701
391
342
500
685
540
339
463
630
685
317
404
585
686
384
347
534
687
543
356
469
617
686
318
420
573
677
385
341
539
685
537
347
470
590
661
308
427
596
686
393
363
520
686
544
341
478
621
683
316
407
576
673
382
339
559
724
538
328
472
622
673
316
422
598
672
387
343
535
727
525
327
482
632
673
321
422
572
686
386
346
538
720
514
310
477
629
661
331
434
582
674
383
356
534
717
515
333
486
643
655
313
432
586
676
382
353
557
728
513
338
485
606
627
322
433
574
687
395
360
527
717
501
317
484
651
635
317
418
577
673
393
356
558
741
502
322
494
639
613
314
422
585
677
392
369
543
731
482
323
485
671
612
312
423
582
674
396
367
552
731
477
343
486
654
601
326
425
570
666
392
379
551
724
477
336
490
685
609
325
410
567
673
391
369
560
730
472
322
484
670
595
323
417
567
651
389
370
559
722
463
333
491
684
592
331
419
568
657
386
371
550
717
463
335
490
682
585
318
414
570
670
403
390
561
721
454
332
489
686
572
331
422
570
646
389
386
561
726
449
333
498
687
571
330
428
581
645
384
384
568
722
447
331
495
692
570
325
425
577
648
377
390
576
723
445
328
496
690
563
327
422
577
644
363
400
569
728
454
328
502
690
556
332
448
594
652
344
403
572
715
438
331
503
710
567
333
440
587
653
335
395
569
709
422
331
521
687
564
327
469
603
678
336
405
543
698
411
340
514
706
562
324
459
598
651
326
405
568
696
411
339
522
685
544
337
465
610
676
325
401
576
707
404
343
524
684
538
336
465
613
684
332
402
559
688
409
344
529
706
548
332
461
608
684
328
414
576
692
400
330
527
692
535
348
475
617
681
325
411
581
685
392
342
541
701
536
342
473
613
684
312
419
589
684
398
344
541
715
533
340
471
609
675
313
424
588
685
393
348
540
712
530
330
482
610
669
319
418
585
685
391
339
537
709
512
326
505
626
646
311
417
582
682
382
363
548
729
517
328
479
619
619
306
417
593
691
388
361
552
730
509
320
503
640
645
314
422
577
670
379
362
551
727
497
318
480
643
629
311
422
581
675
387
357
549
734
498
329
480
652
620
317
426
582
674
396
361
548
723
488
331
483
656
617
322
418
564
674
394
361
542
724
494
338
490
661
603
317
419
557
671
393
365
537
717
477
334
486
667
601
326
419
558
663
391
370
552
725
473
334
488
674
594
324
420
561
658
392
360
561
741
448
337
493
685
589
323
413
563
656
395
377
550
716
467
331
486
684
589
337
421
573
656
392
377
555
724
454
336
492
684
575
327
426
580
652
388
389
572
722
448
338
499
687
570
337
433
567
644
385
390
562
721
458
334
490
690
569
333
442
574
651
370
387
563
718
442
331
498
689
565
329
447
557
644
355
384
565
735
461
332
501
684
566
325
463
589
657
342
397
566
736
441
339
513
690
551
320
451
596
656
324
398
563
709
424
337
536
687
547
326
456
603
667
322
404
564
693
414
331
537
686
549
336
460
600
666
311
404
568
694
387
348
523
683
546
338
460
609
679
316
404
562
710
408
347
529
686
549
346
467
607
682
319
410
575
685
391
347
547
690
571
346
473
601
681
322
415
577
686
394
339
532
693
540
335
477
601
682
316
418
586
685
394
344
533
714
537
332
483
612
672
321
416
583
685
375
346
538
721
533
321
479
604
664
320
418
581
683
385
353
538
726
531
329
485
613
649
316
421
587
680
383
355
541
725
544
320
482
621
640
318
426
582
676
387
359
547
728
514
325
484
634
626
315
424
590
672
373
362
546
725
506
325
484
642
613
317
432
580
669
392
360
541
722
483
333
487
641
605
315
420
572
674
398
368
557
729
474
331
484
663
607
324
419
568
669
390
371
547
723
484
339
483
670
604
329
413
553
663
404
377
550
722
463
336
485
662
596
324
427
554
662
386
377
556
725
432
332
486
677
573
334
431
567
652
395
374
544
717
476
340
470
685
584
327
421
557
654
391
379
553
714
492
343
494
685
577
331
424
566
660
387
383
563
714
455
333
490
684
569
326
434
574
626
389
392
561
716
465
339
510
685
557
323
441
581
648
364
385
562
721
447
340
511
686
561
329
449
591
660
342
389
566
716
421
335
504
684
551
326
453
589
648
333
408
548
708
417
334
517
693
555
332
456
596
663
325
393
562
718
411
330
527
688
571
331
458
601
664
327
401
564
707
411
343
520
684
575
342
463
610
681
318
399
567
703
416
340
518
690
547
350
457
605
686
320
407
582
706
391
339
529
685
540
336
456
601
708
323
415
582
698
425
351
541
685
541
338
474
602
672
319
416
589
691
417
365
544
710
543
315
466
610
672
320
408
586
687
388
348
538
709
534
330
482
613
648
313
419
576
683
418
359
551
705
513
321
483
619
661
325
417
559
682
398
340
533
745
539
322
474
626
646
308
411
579
684
412
357
543
708
511
328
496
634
638
317
425
564
674
403
360
542
727
484
323
476
637
637
331
420
572
675
385
358
539
722
489
327
481
652
617
324
418
567
672
382
370
547
726
485
330
499
659
607
330
412
570
667
378
365
550
722
479
332
484
666
612
335
411
553
664
395
373
547
713
491
331
480
671
607
338
417
551
656
412
377
569
728
467
330
476
674
593
331
412
562
655
404
380
557
716
467
333
483
685
586
324
419
556
648
399
380
557
729
454
333
481
685
573
324
427
563
646
381
385
547
724
472
337
495
686
566
333
436
578
648
372
389
576
714
442
330
496
686
564
332
445
573
651
351
386
570
719
451
335
499
686
555
330
448
597
654
339
396
566
711
427
335
523
693
558
330
457
596
665
330
397
573
708
400
340
512
685
553
335
456
597
677
331
404
567
701
420
341
516
688
550
339
460
602
687
326
405
573
698
415
340
529
685
548
348
464
599
684
320
407
578
695
415
340
531
684
544
348
467
601
685
320
412
574
691
399
344
534
705
540
349
466
602
680
327
417
577
685
397
346
539
714
537
336
472
601
676
316
417
590
685
382
350
539
717
532
325
480
615
660
320
420
587
685
381
350
539
722
522
328
478
622
651
318
420
582
685
393
351
546
718
521
318
479
630
635
316
422
586
682
395
361
547
724
509
323
479
637
627
324
420
584
683
388
356
533
722
499
322
483
645
616
317
419
573
675
394
360
563
719
489
334
484
659
610
324
421
568
668
384
365
545
718
480
337
483
664
599
328
417
562
664
405
369
551
719
471
336
481
671
598
330
419
560
659
396
375
565
717
479
337
486
677
589
330
422
559
655
394
382
549
718
479
337
488
687
581
328
424
565
651
394
382
540
719
452
337
496
685
573
328
428
577
647
375
383
559
714
446
332
498
686
568
335
436
578
648
374
388
556
714
432
333
496
682
563
336
446
589
658
359
393
560
712
408
332
508
685
560
334
455
597
657
334
394
573
704
442
341
508
684
553
338
454
595
660
335
401
546
708
425
331
519
687
552
331
459
603
667
330
402
564
699
393
338
517
688
550
332
457
607
677
326
406
565
702
404
342
543
685
549
354
462
600
682
329
408
569
685
380
346
534
697
543
351
469
605
680
317
416
572
689
411
343
535
696
536
348
471
605
679
321
415
580
685
391
346
546
717
546
332
475
604
673
320
418
582
686
387
351
532
718
539
328
479
609
663
322
422
582
685
388
351
527
722
523
321
480
616
645
324
428
576
682
370
356
544
719
515
323
487
627
634
319
424
579
679
391
358
536
716
494
325
481
636
625
321
413
582
674
392
362
545
720
499
330
472
