CH1
481
294
468
687
615
322
402
547
685
364
348
537
746
474
299
466
688
613
319
406
567
686
363
351
542
742
464
296
463
687
614
325
403
560
684
351
356
539
741
455
298
478
689
603
327
414
567
687
343
353
535
737
439
292
475
685
606
328
422
574
711
339
358
539
738
444
302
489
687
596
335
422
579
726
334
366
544
735
437
301
492
686
599
338
424
564
736
325
371
543
738
432
299
491
686
602
331
426
578
744
322
362
548
731
435
304
498
704
595
345
428
566
743
321
371
545
732
431
302
499
714
594
346
436
555
745
326
373
543
726
429
303
504
721
590
335
438
566
737
317
379
562
731
424
307
502
732
586
339
441
560
736
318
381
560
724
418
316
506
735
585
319
445
573
724
313
380
548
721
412
313
513
737
575
315
446
582
715
313
387
560
723
411
313
516
737
574
312
449
592
699
308
391
544
720
410
316
513
742
570
305
449
608
686
314
386
549
712
406
312
517
749
555
304
448
617
682
305
388
562
713
418
315
510
744
548
302
444
632
673
307
381
552
713
421
321
519
745
543
307
448
634
665
306
375
549
709
421
326
516
739
531
311
458
644
659
317
374
538
697
420
323
529
745
503
317
455
655
662
322
367
540
685
454
335
535
755
513
315
454
661
650
320
370
512
686
428
334
537
752
507
306
458
677
647
294
374
523
686
427
332
536
745
499
306
462
681
639
320
367
509
685
428
342
531
751
493
310
457
687
629
322
380
533
688
403
344
530
747
485
303
459
687
623
321
392
560
681
387
353
536
752
479
304
462
686
611
316
396
558
686
363
352
539
747
471
299
464
693
615
318
404
567
684
349
353
545
744
472
300
471
689
607
321
417
569
686
349
355
542
740
462
305
471
686
606
329
418
566
688
336
361
538
742
449
300
481
687
601
337
422
572
720
325
364
537
743
438
302
487
687
599
339
426
570
730
337
367
537
747
438
299
497
701
598
341
422
567
738
324
370
535
728
443
289
507
689
605
323
427
562
738
315
378
546
736
431
305
506
713
594
349
432
567
745
325
378
551
731
420
302
505
723
587
336
439
566
740
313
386
559
731
421
314
509
730
582
335
446
565
730
311
380
556
730
415
316
513
736
575
332
447
582
711
313
383
524
715
408
317
522
740
574
310
448
592
707
316
388
555
719
399
307
510
735
567
310
452
603
686
317
386
536
715
408
315
527
743
560
302
456
617
676
305
393
543
714
413
324
520
743
548
305
454
630
670
320
386
554
709
405
325
516
738
534
301
464
634
663
318
374
527
702
428
330
523
742
525
305
455
643
658
315
378
542
698
419
331
520
748
516
310
450
660
656
320
367
523
689
418
333
525
748
507
311
450
664
646
326
382
536
683
422
336
528
747
497
308
461
681
637
344
378
529
687
403
337
534
755
494
304
460
685
631
316
385
522
684
433
340
533
754
483
305
461
687
622
327
389
532
684
411
345
539
750
480
307
466
687
614
319
397
547
683
385
355
544
746
464
301
469
687
612
315
407
552
685
369
358
543
745
457
294
478
701
606
313
411
565
686
341
359
543
742
452
298
481
695
608
338
413
577
695
336
364
549
738
437
305
486
688
602
337
423
574
722
319
366
537
738
437
307
485
685
604
341
429
575
731
314
366
563
739
428
299
498
689
596
348
433
571
739
337
376
546
737
424
303
504
707
599
337
431
563
742
320
381
553
729
426
302
505
724
591
333
443
571
734
319
382
555
726
417
307
511
729
585
326
440
570
726
322
379
547
724
410
309
519
735
581
316
445
584
715
308
389
552
722
409
312
517
738
574
302
454
595
692
311
388
559
718
410
321
511
739
563
310
451
604
683
308
391
571
717
410
315
519
741
553
302
451
622
675
314
385
556
712
411
320
516
744
537
305
460
635
663
318
379
541
707
415
326
525
745
526
311
455
647
662
313
376
522
701
418
329
528
742
520
313
458
661
657
311
378
525
696
436
326
523
753
506
312
456
670
646
324
374
518
686
423
330
528
753
499
306
460
679
637
324
375
525
687
430
345
529
750
489
306
462
685
629
330
379
536
686
417
351
538
750
481
309
461
685
616
319
388
543
685
374
348
543
750
479
298
458
684
615
316
406
555
683
371
356
541
743
465
306
475
697
613
319
410
563
687
360
360
545
741
438
298
481
686
606
338
412
574
695
340
357
539
740
439
309
486
686
608
341
421
565
725
328
358
524
751
440
305
494
684
598
331
426
562
733
324
374
557
743
435
309
496
686
596
330
438
582
743
320
388
537
732
422
307
494
703
596
344
438
570
745
327
379
555
715
420
306
524
727
591
343
442
567
736
313
375
575
737
419
318
514
739
588
319
449
568
719
314
393
562
727
429
317
514
736
576
319
453
593
709
311
391
574
720
396
318
517
741
568
316
454
605
688
308
388
557
701
403
323
531
747
562
302
457
612
676
308
379
558
727
434
325
525
743
544
307
455
613
664
307
392
543
708
407
321
517
740
533
298
455
656
664
315
383
512
701
415
323
506
744
521
321
456
660
658
321
364
499
679
412
329
533
749
511
322
456
666
650
318
360
507
713
420
339
531
747
501
304
457
660
638
318
385
536
688
434
339
506
744
488
298
458
691
633
328
381
541
684
399
347
543
753
487
305
458
687
623
322
393
563
686
410
351
544
749
472
303
465
687
615
318
410
557
687
375
360
530
746
465
297
475
690
611
321
415
555
685
365
360
563
740
452
299
480
695
607
326
419
570
695
351
368
544
739
442
300
482
691
602
342
424
566
729
339
366
544
737
436
313
496
686
602
338
427
576
735
327
377
555
740
433
312
486
688
597
351
432
565
744
316
375
545
737
433
311
508
718
593
337
438
564
742
312
374
563
731
422
313
510
726
594
337
441
567
739
310
386
560
728
421
312
509
733
583
321
450
575
722
319
390
565
722
412
313
511
738
580
308
450
591
702
318
390
570
719
396
325
513
742
570
307
451
607
685
312
389
559
717
412
321
519
740
556
300
454
620
677
311
384
560
711
416
324
520
740
545
308
456
636
666
313
377
537
704
416
334
525
743
532
309
462
645
659
315
382
524
701
433
333
523
748
516
310
459
656
660
317
373
517
693
438
337
528
743
504
306
453
669
650
327
377
514
686
434
334
530
749
495
308
455
681
640
326
379
528
685
395
341
532
756
491
302
457
685
629
320
388
545
684
398
347
544
753
478
302
462
689
619
315
398
549
686
388
353
544
750
469
304
464
689
613
321
404
557
688
366
360
544
750
460
301
472
698
613
330
411
560
685
355
359
538
740
448
300
482
684
606
330
421
568
718
343
370
537
746
443
304
488
685
601
345
423
579
727
327
376
525
734
450
310
494
688
597
347
428
571
741
323
373
539
739
431
308
507
707
595
340
436
561
743
322
381
556
737
429
310
508
723
597
342
442
567
740
319
379
547
728
433
313
515
728
590
318
448
574
726
324
388
565
726
413
313
517
736
581
323
446
583
711
314
385
546
723
410
325
525
735
572
310
453
599
692
315
389
536
718
421
320
529
737
560
300
453
614
683
317
389
548
713
397
320
529
739
548
304
453
629
670
316
380
533
710
422
320
522
744
537
308
458
640
669
317
372
512
699
417
326
526
745
523
313
455
655
657
324
371
520
698
401
327
526
749
508
308
453
671
657
318
377
521
686
428
335
497
751
497
301
459
682
644
323
378
525
686
404
339
529
750
493
304
458
685
631
316
384
548
686
409
345
535
753
482
304
467
686
619
322
389
555
686
399
346
523
753
480
299
470
686
616
319
400
556
687
363
352
562
751
467
296
467
688
611
330
417
562
687
350
361
538
745
455
301
484
696
606
334
418
565
714
340
366
541
740
449
304
495
693
602
335
423
576
731
331
366
562
736
437
302
493
690
600
340
428
572
739
322
371
537
740
439
310
500
710
595
338
435
570
740
316
379
560
737
424
299
508
728
595
332
435
568
743
317
386
556
728
417
315
508
732
590
320
443
571
727
314
384
564
731
434
314
517
734
584
316
452
584
711
319
387
559
723
404
313
536
737
572
311
450
599
687
311
390
555
716
413
318
512
740
560
303
451
613
680
314
388
554
714
395
320
520
743
551
301
453
630
669
313
387
543
709
410
332
534
743
565
309
455
646
660
319
377
530
706
416
329
522
742
525
309
458
656
655
313
380
521
696
417
334
516
743
507
311
455
670
649
321
374
523
691
421
337
526
751
501
307
464
683
641
320
381
523
686
419
344
535
752
463
310
454
685
634
317
388
534
685
416
349
535
754
477
303
480
685
625
315
396
548
685
393
354
542
752
445
297
465
690
615
320
407
558
684
366
353
546
752
467
303
476
691
614
322
414
565
686
340
358
542
744
469
299
485
686
606
333
425
572
714
330
366
544
742
451
303
494
688
570
329
428
577
734
333
368
544
737
432
306
513
690
600
344
426
576
745
316
377
550
738
437
311
496
714
598
348
429
570
742
316
378
557
732
425
311
503
726
563
340
437
572
748
323
384
554
734
419
304
517
732
581
323
456
581
724
312
390
559
728
412
315
513
739
569
320
452
591
710
307
389
557
720
414
313
514
742
594
307
453
604
685
320
384
554
715
408
321
524
740
571
306
446
620
680
314
387
553
713
414
319
524
741
543
311
462
635
668
320
384
542
703
414
331
523
739
512
304
461
647
661
316
378
527
700
416
332
516
744
528
314
454
658
655
324
374
525
695
422
330
523
751
513
306
477
676
648
325
377
526
686
420
340
530
754
493
306
455
683
673
320
379
527
685
422
348
531
756
496
307
440
686
627
315
389
543
687
400
347
542
755
450
307
462
684
621
316
395
554
686
376
350
544
748
466
299
477
688
652
315
410
564
687
363
353
543
746
457
304
477
688
574
331
418
568
688
335
357
544
744
451
309
503
687
605
352
428
577
721
332
371
542
743
451
307
473
686
604
341
426
573
732
322
375
544
739
435
306
489
699
576
343
433
565
740
321
381
553
734
424
310
511
725
591
338
443
567
742
314
381
560
730
419
305
526
730
587
335
437
577
733
316
388
554
724
416
314
505
735
620
326
449
585
718
306
386
559
725
413
316
517
738
587
308
458
598
696
306
387
554
727
409
319
517
741
564
303
445
608
713
310
383
552
717
415
321
525
737
563
305
451
625
671
311
385
544
713
416
322
529
741
506
306
452
646
662
313
379
525
699
414
329
526
744
515
314
462
659
684
317
378
519
694
418
335
525
744
507
307
463
668
635
320
377
523
688
424
335
528
749
498
308
430
685
643
324
379
531
686
425
340
537
746
475
306
463
685
629
321
390
545
685
413
346
538
751
480
303
459
688
635
332
399
552
686
388
352
538
757
475
301
466
685
583
318
409
557
685
353
359
543
756
465
298
493
687
614
331
418
568
692
334
360
543
746
460
296
475
689
610
332
422
573
710
337
369
542
741
447
300
491
685
571
342
424
575
733
326
371
548
738
429
308
499
688
609
341
410
573
740
321
375
553
735
424
310
495
720
600
341
432
566
733
324
382
560
728
418
309
536
722
590
329
441
572
732
315
385
559
726
414
317
518
737
576
309
445
583
722
319
388
558
722
404
317
538
743
573
312
453
604
698
315
385
558
719
411
316
523
751
561
297
450
615
686
312
390
567
718
413
322
523
741
547
307
450
630
675
318
383
539
717
418
326
513
742
537
305
456
644
661
316
381
526
706
414
329
529
746
525
308
456
656
654
308
380
513
694
415
332
527
743
509
309
459
672
654
331
372
516
685
422
335
532
746
497
311
457
683
641
322
381
534
686
407
344
533
752
487
307
456
685
630
325
383
539
684
399
346
538
748
480
299
463
688
621
322
397
549
687
387
348
543
748
474
291
468
690
617
328
402
556
684
360
352
544
747
464
296
477
693
609
329
411
570
690
337
360
540
746
460
288
483
691
607
346
422
574
720
340
367
542
747
441
300
490
688
603
341
424
583
737
328
361
547
745
434
312
497
689
607
341
428
570
739
319
379
556
737
429
307
507
714
598
342
433
562
740
313
385
556
731
416
304
512
727
593
320
439
578
736
319
388
560
726
415
302
515
738
590
321
445
583
723
315
382
557
725
415
311
516
739
583
313
454
594
704
319
380
556
724
410
317
522
738
568
301
453
610
686
310
388
554
719
411
314
522
753
554
301
453
626
677
316
390
544
713
421
327
526
748
542
299
447
643
669
317
381
526
705
418
324
521
745
526
310
456
655
659
321
373
516
700
419
325
528
748
509
315
443
668
660
327
370
505
702
428
334
529
744
499
305
457
683
648
325
379
519
687
424
337
529
749
491
303
452
688
633
318
382
535
685
409
340
536
747
487
304
463
690
624
321
394
549
686
388
342
540
749
474
301
466
688
613
319
406
561
687
371
354
543
748
469
299
467
692
613
324
417
567
693
345
354
531
745
459
299
480
695
609
332
416
573
714
328
363
543
743
449
308
494
688
603
342
424
571
732
334
374
551
740
433
304
497
686
598
339
428
574
744
320
372
545
741
449
307
504
702
597
335
435
569
743
325
386
563
738
423
309
505
728
596
322
431
563
742
317
383
574
733
420
302
511
731
594
325
444
572
722
314
386
543
726
414
311
513
738
588
325
446
591
708
315
384
558
724
406
310
505
746
570
294
446
606
686
313
383
555
720
420
318
520
749
560
301
448
626
682
316
383
547
714
441
318
523
744
547
305
446
635
667
319
374
541
713
420
326
518
744
534
311
449
647
664
325
371
508
700
423
327
545
745
513
311
454
669
660
318
374
515
686
421
325
534
750
494
312
455
684
653
330
377
512
685
419
338
542
746
491
306
454
686
639
321
385
535
685
431
341
514
751
485
307
459
687
630
319
394
536
686
411
344
542
745
475
301
436
689
618
319
402
556
686
376
346
543
747
476
303
455
686
615
326
413
564
686
345
352
548
745
485
305
474
699
611
345
417
571
700
338
359
539
741
457
302
485
686
605
343
422
574
725
331
367
550
734
440
304
512
690
602
348
426
573
740
323
368
563
745
440
306
507
693
600
342
421
569
743
324
378
560
733
414
306
506
716
597
336
435
565
741
318
381
557
729
409
312
514
726
592
334
439
570
731
314
383
558
722
409
318
504
735
588
321
451
577
720
310
389
553
727
414
313
515
740
592
304
449
594
700
312
387
549
720
415
312
488
745
572
307
453
607
686
308
388
548
716
413
315
522
746
557
309
449
623
678
317
385
542
714
419
316
537
749
505
307
453
643
660
316
377
529
705
416
329
540
745
503
309
450
649
662
320
378
514
699
423
330
536
741
537
313
449
664
656
326
375
512
687
422
335
536
751
484
310
458
681
648
324
375
522
686
425
339
539
748
485
306
441
684
639
325
381
532
685
424
337
535
749
458
308
473
685
622
314
397
540
685
403
341
543
751
442
303
462
700
621
324
399
550
686
377
348
539
748
461
301
453
688
616
319
407
563
689
358
358
545
744
464
294
463
687
641
340
418
566
708
342
357
540
747
457
301
468
683
628
340
425
574
723
335
365
543
738
439
309
467
686
604
333
428
570
737
325
370
546
734
441
313
495
689
599
341
428
564
745
328
378
553
734
425
306
518
716
564
338
435
558
745
320
380
556
730
422
316
529
727
563
330
440
566
734
312
377
553
725
419
311
535
734
593
323
440
578
721
320
383
546
724
420
308
511
740
597
311
446
590
708
323
387
555
725
413
317
521
747
581
301
427
605
687
312
386
549
719
415
321
509
742
586
306
448
623
676
312
386
542
706
420
327
517
744
544
309
449
637
666
324
380
526
709
417
327
544
741
507
312
450
648
661
328
376
514
698
417
330
525
742
510
314
456
666
656
323
372
512
692
426
337
528
745
491
309
449
677
648
321
379
514
684
429
337
538
756
509
305
460
687
638
326
378
526
685
424
343
526
753
514
306
458
687
627
317
386
539
685
417
336
541
749
451
302
462
688
623
327
400
548
685
377
353
558
749
471
306
466
702
617
323
408
552
687
347
357
538
744
469
300
453
687
615
330
415
556
694
355
360
541
744
456
297
485
687
607
331
422
571
721
328
359
560
738
444
305
500
687
607
350
424
572
737
328
367
528
736
435
306
509
687
603
343
426
566
744
328
371
548
737
435
304
492
700
624
332
434
568
748
314
381
552
730
428
304
498
718
581
330
435
560
747
319
380
569
727
422
312
510
728
575
318
444
572
730
322
384
547
725
418
310
515
736
559
322
451
583
714
309
387
556
729
411
314
519
742
582
314
432
599
698
311
393
548
719
407
319
520
747
574
304
439
612
685
321
381
543
719
417
316
522
744
559
303
439
631
677
314
385
540
711
418
324
525
745
540
302
463
633
664
315
383
527
709
421
325
522
741
528
308
458
650
674
333
378
517
702
422
328
522
742
518
312
448
662
685
330
375
513
686
424
336
527
744
508
308
453
678
677
325
377
517
686
424
338
533
750
496
304
449
685
628
325
380
527
686
424
338
535
751
489
303
457
688
606
324
391
539
692
410
343
536
751
479
306
460
690
604
322
403
551
685
386
348
543
752
476
305
462
693
599
323
408
554
685
364
356
543
746
466
305
474
693
619
326
411
564
697
347
356
542
739
458
305
479
687
619
341
399
568
715
343
365
540
741
446
300
484
687
611
338
401
577
730
334
369
544
736
444
309
492
685
611
342
406
572
740
320
374
551
735
434
304
496
690
602
346
437
565
743
328
379
552
733
427
304
505
724
591
338
449
562
742
318
382
558
730
423
309
509
727
588
330
448
571
734
313
380
543
725
422
313
510
735
584
320
456
576
722
322
386
566
725
415
312
514
735
575
314
465
592
704
315
383
548
721
411
321
523
737
570
304
464
600
687
313
388
553
720
413
314
518
737
558
309
466
616
678
313
388
553
714
397
322
524
743
549
304
466
627
670
319
382
528
709
407
317
523
742
538
309
459
640
668
323
377
517
703
417
326
527
746
529
312
457
656
664
321
374
530
700
419
330
523
747
513
310
467
662
658
322
379
510
692
425
336
539
748
503
310
457
674
652
325
379
522
690
426
337
512
749
501
311
450
684
665
318
379
531
683
409
344
534
754
491
306
455
685
658
326
379
535
684
426
346
533
756
484
307
457
689
652
322
394
548
683
393
343
537
750
487
303
456
691
640
329
403
555
684
373
350
545
747
447
299
466
704
607
326
402
560
693
352
348
556
745
462
308
476
687
602
328
418
566
701
337
362
554
751
448
300
475
684
616
343
424
575
718
334
365
542
741
455
303
495
686
595
345
426
570
732
333
368
543
736
433
307
505
687
580
346
432
567
740
324
374
554
738
441
306
502
705
576
338
433
563
745
322
379
545
732
447
307
503
717
581
333
434
561
742
324
380
557
730
414
309
516
727
605
333
440
573
741
322
380
555
725
422
304
516
735
571
318
444
576
726
324
385
547
731
405
323
519
737
560
315
442
585
709
314
383
552
723
390
314
525
743
553
305
452
595
693
313
385
549
720
410
320
518
741
534
312
452
615
683
307
384
550
718
412
319
521
748
578
306
450
624
676
314
388
543
713
420
323
506
747
537
306
446
634
668
317
377
529
707
417
329
517
743
521
305
457
649
661
320
377
521
703
422
328
525
747
504
312
445
660
663
316
378
515
696
422
333
522
743
493
309
431
669
650
322
371
516
690
423
341
547
747
515
310
443
679
646
322
373
516
686
432
342
524
747
505
308
446
687
638
326
382
528
690
419
344
532
746
503
300
433
685
630
319
386
536
685
402
345
537
748
482
298
464
684
625
322
397
548
687
382
344
543
749
470
301
446
692
617
320
403
553
685
383
353
538
749
469
299
453
697
613
325
412
560
686
355
357
545
744
458
301
494
697
651
330
419
564
690
347
364
544
743
452
296
482
686
615
333
419
573
717
340
362
545
741
453
304
490
691
606
350
419
573
729
334
369
547
739
429
309
495
689
606
349
426
577
739
326
374
547
739
437
307
507
690
578
344
429
568
742
327
374
550
748
429
307
520
712
603
351
429
564
748
322
377
554
739
422
302
505
716
599
341
433
565
742
316
378
557
729
423
313
497
720
591
338
441
570
734
323
381
556
730
420
307
513
728
558
324
439
573
727
315
385
559
728
419
315
518
735
553
325
446
589
709
309
382
555
727
410
322
552
739
577
299
446
596
696
319
384
553
716
419
320
528
748
569
300
456
608
686
318
387
548
719
406
319
526
749
566
302
426
620
682
318
379
550
715
411
323
520
745
580
301
451
628
672
321
384
536
713
416
326
520
746
559
306
448
637
667
319
374
526
708
416
333
535
745
551
308
452
650
662
316
371
522
708
418
323
516
743
540
305
452
659
657
319
373
515
698
421
332
501
744
509
310
454
669
652
324
374
518
690
435
328
517
744
510
304
453
678
647
329
370
528
687
423
337
530
748
482
303
454
685
637
322
385
522
685
426
341
533
754
471
307
458
685
630
324
376
531
686
405
340
537
749
464
300
463
685
627
318
391
547
685
404
346
542
747
461
302
466
688
622
326
395
548
687
385
356
540
750
458
307
466
688
613
319
406
562
686
358
353
540
749
463
300
472
688
613
328
411
567
688
343
354
541
750
455
301
475
687
611
337
417
564
696
347
349
541
747
443
301
480
687
616
343
417
572
714
343
360
544
743
450
306
486
687
606
334
422
567
728
342
359
540
742
444
305
482
687
606
342
416
569
734
328
376
544
739
441
312
499
687
603
346
428
571
741
328
370
547
736
430
300
500
698
600
342
434
564
745
320
377
551
734
432
311
489
716
596
343
439
565
746
325
375
558
731
425
313
495
724
596
333
437
564
740
320
378
557
729
424
311
492
728
596
342
447
575
733
321
380
551
729
416
317
497
738
589
314
446
580
723
323
384
548
728
408
313
522
734
581
322
448
587
713
309
383
550
726
401
319
534
739
582
303
452
596
692
321
389
550
722
408
313
521
745
571
303
453
604
684
314
379
555
716
410
317
533
737
560
299
449
617
681
310
385
548
719
414
324
536
741
554
309
449
621
674
311
388
543
713
416
313
534
747
544
304
455
641
667
313
381
530
706
414
326
544
747
534
304
454
643
664
318
377
528
703
415
330
539
744
529
311
453
649
661
323
374
522
703
421
327
518
746
533
311
454
662
657
322
372
508
691
420
328
524
753
527
306
451
671
652
331
378
520
692
409
331
527
752
504
307
455
678
653
324
374
509
686
426
343
520
754
516
307
457
683
645
318
376
522
685
424
343
524
755
501
310
456
685
637
327
384
534
683
422
342
505
753
497
306
457
686
627
318
387
539
686
409
345
543
748
501
302
463
687
623
314
386
540
685
389
350
533
748
486
303
468
688
621
321
403
545
685
384
348
544
745
456
302
464
688
621
321
410
552
686
368
356
565
749
456
303
473
688
617
323
417
556
687
352
357
530
746
454
302
470
688
615
335
418
565
686
354
358
535
745
443
305
477
701
611
333
415
564
703
341
358
541
746
447
300
477
687
610
347
418
573
726
327
368
548
741
462
299
486
689
608
342
420
576
730
326
366
540
742
452
311
475
683
602
342
428
572
738
326
370
541
747
468
307
483
689
603
350
431
567
742
319
376
568
739
424
313
508
698
605
333
425
565
744
324
380
554
732
426
311
514
717
598
333
436
564
742
317
376
559
734
423
312
526
721
598
328
438
565
744
319
376
557
734
420
309
523
732
595
333
441
565
736
323
378
547
730
440
313
507
737
618
319
444
574
735
320
383
551
726
418
306
512
738
613
321
447
579
721
317
382
560
724
421
314
509
740
606
310
449
588
707
313
373
547
719
413
315
521
738
552
310
449
597
695
318
387
548
718
413
317
521
738
545
304
449
605
685
316
385
547
717
406
317
526
743
537
302
452
615
683
308
386
552
715
400
328
525
739
529
305
448
621
678
309
385
556
709
414
323
521
747
545
305
449
634
668
314
378
539
708
418
330
523
746
544
306
434
642
670
310
382
524
706
410
324
522
745
537
304
454
645
664
322
378
525
701
399
323
522
747
536
311
430
653
666
314
375
512
696
423
326
521
746
522
306
444
661
658
329
376
512
688
420
336
526
742
504
312
464
671
655
323
376
506
687
437
339
529
748
499
311
457
678
651
327
371
509
686
434
337
524
753
490
305
468
685
641
318
376
518
685
422
343
530
752
491
308
468
687
636
318
383
522
686
417
341
533
751
487
309
460
687
633
314
388
546
685
403
343
540
754
479
304
470
687
627
319
393
546
687
403
344
538
753
479
303
463
688
646
321
398
547
686
387
348
544
750
481
303
459
694
623
327
407
555
686
358
354
543
749
471
302
462
701
623
322
410
566
687
351
353
542
746
470
299
468
695
633
330
414
558
687
350
355
536
741
468
300
471
697
606
337
416
566
701
343
352
542
745
456
302
480
687
585
346
416
572
713
335
363
540
743
450
298
477
693
592
347
416
565
728
332
366
542
741
446
308
484
684
588
342
427
573
732
326
374
545
736
437
300
491
686
578
351
426
572
738
331
366
549
745
441
302
493
690
585
355
425
568
741
318
365
549
737
433
309
508
690
574
343
436
565
739
324
377
554
738
425
309
505
714
572
352
435
564
741
304
380
555
733
430
304
510
716
574
336
439
556
745
315
386
557
732
421
314
511
722
587
327
435
559
743
313
385
562
728
422
316
512
726
572
330
444
573
733
310
384
560
726
414
317
519
733
560
325
447
574
727
313
385
562
725
419
314
523
732
572
332
458
583
718
309
383
562
721
414
319
517
738
579
320
451
590
699
305
394
561
718
413
315
520
743
562
309
460
597
692
310
391
559
718
407
316
533
746
551
292
450
608
686
311
387
554
716
408
319
526
750
563
297
453
617
684
306
387
554
713
412
320
526
750
561
295
450
620
681
308
387
553
713
407
320
530
742
547
293
454
624
668
314
378
563
716
412
329
506
767
533
292
461
639
664
310
383
542
707
414
324
526
744
535
302
447
645
660
308
385
528
704
414
326
526
742
538
308
444
649
659
326
367
527
699
414
332
525
743
525
312
452
654
655
323
379
522
693
416
331
529
742
512
311
451
660
649
310
375
523
693
420
337
527
746
513
304
442
669
647
317
381
520
689
419
330
527
745
508
308
446
674
645
326
380
521
685
417
344
533
749
503
309
458
684
641
322
385
531
686
414
344
539
751
488
304
459
687
615
309
398
554
678
388
363
557
742
453
310
486
718
576
305
429
592
659
361
376
583
739
417
323
511
729
536
303
454
620
638
336
397
601
727
390
334
527
739
510
297
473
639
628
317
406
619
721
366
336
544
749
483
287
491
667
612
286
422
637
713
334
336
571
754
461
282
503
684
601
261
437
653
704
310
344
590
763
438
276
523
692
583
249
448
672
692
280
352
613
769
408
264
540
728
568
228
462
684
685
258
355
629
772
395
276
548
743
565
212
462
684
683
248
360
637
772
387
283
553
747
563
213
470
686
687
248
364
641
770
379
263
557
752
558
216
474
685
686
240
370
647
766
373
279
559
754
555
217
478
685
681
239
368
648
764
366
277
565
752
549
215
486
683
669
231
378
655
764
360
281
564
757
541
222
484
687
674
231
377
659
769
362
280
565
755
542
231
487
685
663
233
384
659
759
356
278
572
758
541
226
488
685
663
233
390
659
759
356
279
574
756
538
234
486
687
661
237
389
661
760
352
288
573
756
531
231
489
703
653
235
394
664
761
345
286
575
761
521
219
491
709
649
232
396
664
764
344
297
575
768
517
228
496
706
648
235
397
665
760
336
303
584
768
506
241
494
708
644
231
402
666
757
330
302
588
771
500
225
503
711
641
234
403
670
756
322
308
589
769
491
239
500
710
634
228
409
668
757
321
314
590
773
485
232
505
712
629
231
411
666
749
320
313
592
769
477
233
506
713
625
234
412
671
752
317
320
592
773
474
237
510
714
623
234
411
674
751
311
317
588
777
471
233
506
716
624
234
415
674
748
307
325
592
778
464
239
509
708
620
233
417
669
750
307
331
594
774
460
235
510
713
615
235
420
671
744
297
329
598
782
452
247
511
715
613
229
424
674
740
294
330
599
781
447
249
515
716
608
228
427
673
736
287
333
602
778
445
254
512
715
604
229
429
673
733
290
338
603
780
441
245
516
721
603
229
436
673
731
278
338
605
783
439
263
516
723
602
229
438
677
729
285
337
606
780
437
257
519
723
596
233
434
675
725
286
338
608
780
434
264
514
717
598
234
433
668
725
281
337
603
775
441
259
512
711
597
242
435
665
728
281
344
600
775
443
271
512
708
597
247
433
667
727
287
345
600
773
439
265
512
709
593
243
437
666
722
283
341
606
777
433
271
517
704
592
242
442
672
719
271
342
603
775
430
269
521
713
587
247
442
674
716
272
347
605
776
425
265
526
718
585
242
443
673
711
267
348
608
778
422
270
528
716
582
245
450
676
707
270
346
612
778
419
273
530
720
577
238
450
679
705
260
350
613
775
414
265
538
725
576
229
455
677
698
259
351
617
777
412
265
537
729
574
227
457
680
702
259
354
619
767
406
271
539
731
572
226
460
678
694
258
360
621
770
408
277
543
731
571
221
458
681
687
260
355
623
765
408
282
544
730
569
234
467
673
685
255
360
620
761
404
288
545
731
569
237
463
678
685
252
364
626
763
398
268
549
732
569
233
469
678
685
251
368
628
762
397
287
549
733
567
231
465
683
681
253
366
631
761
392
286
554
738
566
234
471
685
677
254
371
635
757
391
284
553
738
566
234
472
686
679
250
369
634
758
387
285
555
736
562
224
472
685
676
254
376
636
764
383
272
557
736
557
231
472
684
673
256
376
638
761
380
278
557
739
560
235
478
684
669
257
377
642
758
378
285
560
743
556
229
479
685
662
253
380
642
765
374
282
564
746
552
235
477
682
661
254
385
644
762
372
290
561
748
545
231
480
686
661
253
384
641
760
375
292
564
750
541
235
485
684
658
259
385
648
756
366
292
567
750
540
230
484
687
657
251
387
651
758
360
298
570
752
529
233
482
686
649
252
389
642
759
355
293
571
756
525
243
486
686
649
250
394
647
761
355
294
574
753
519
248
486
687
650
252
393
643
759
354
305
573
755
512
239
488
696
645
252
393
647
756
346
307
574
757
509
243
489
687
641
252
398
648
751
347
306
574
756
501
253
488
687
638
248
400
656
752
339
315
577
756
495
233
492
702
634
249
403
651
755
335
319
578
760
491
256
492
703
633
249
406
649
752
331
320
578
768
487
242
496
686
630
247
405
659
749
328
319
579
757
483
245
500
687
629
250
409
667
746
325
322
579
765
478
248
501
702
621
249
412
662
743
321
326
582
768
477
254
499
697
622
250
413
659
747
316
329
584
767
471
259
499
685
622
250
415
669
738
313
331
584
766
471
250
499
684
623
250
419
670
735
312
334
584
770
465
255
501
686
619
252
415
665
733
309
336
588
770
462
263
503
685
610
249
418
670
730
309
333
589
768
460
271
501
687
611
248
425
667
730
304
338
588
768
460
260
503
696
607
251
422
666
731
300
335
588
767
458
263
501
701
602
253
424
670
729
299
337
593
772
456
271
508
690
607
254
428
672
727
294
339
589
770
452
259
504
699
606
254
428
669
726
296
342
594
776
446
270
505
698
597
252
432
665
719
295
342
600
775
442
268
513
700
594
250
434
674
721
290
338
592
774
441
263
512
699
593
248
438
674
715
287
344
602
774
437
273
518
704
591
252
441
668
715
288
345
601
775
433
274
518
712
588
249
439
670
710
288
344
606
775
429
274
521
702
583
244
444
673
716
277
342
607
774
427
264
524
717
588
243
442
669
708
282
347
606
772
422
275
525
719
582
240
444
670
712
284
349
606
769
426
274
532
717
581
239
447
669
711
284
348
611
770
422
271
533
715
580
232
451
673
703
280
348
612
770
419
273
536
719
577
232
451
670
701
281
352
613
768
415
273
533
722
575
233
451
674
694
267
356
616
770
415
279
536
725
574
226
455
675
694
270
358
617
766
409
270
541
724
575
218
454
671
686
274
358
620
763
406
283
544
728
574
239
456
669
685
263
364
625
764
408
278
543
731
572
230
459
682
685
260
363
622
762
402
275
543
735
575
231
465
678
685
257
363
626
765
401
282
547
735
573
223
462
672
687
267
359
627
763
398
287
547
736
570
234
464
679
683
257
365
628
760
397
275
548
732
570
223
469
680
688
254
367
628
756
396
278
550
735
571
231
469
682
681
254
367
631
758
394
272
552
736
569
233
468
683
680
250
369
631
759
394
285
551
739
567
234
472
686
677
251
373
632
762
391
275
553
737
566
241
471
682
676
251
372
633
760
385
286
553
737
566
238
473
685
674
250
373
637
759
384
292
553
737
563
233
475
684
667
251
376
637
760
383
282
559
738
561
240
475
686
668
247
383
639
761
379
287
558
738
557
236
479
685
666
250
379
644
760
377
282
563
739
553
232
476
685
664
247
380
642
760
372
286
561
746
552
237
480
686
661
246
378
641
761
374
285
562
744
548
234
480
682
662
249
382
648
760
371
291
563
743
545
243
482
688
659
253
385
649
759
369
290
564
753
536
232
485
688
655
245
383
647
756
366
293
565
753
536
244
481
686
657
247
388
647
757
365
299
564
751
534
240
482
686
657
256
389
649
752
362
300
571
751
525
242
485
686
652
246
391
652
759
359
297
568
756
524
233
482
685
656
247
390
648
759
362
296
569
757
522
240
483
686
648
253
391
650
755
354
301
575
755
516
241
489
687
647
243
397
653
752
348
306
571
761
509
241
488
686
644
254
394
653
750
348
312
572
757
503
242
489
686
647
256
398
651
747
346
307
573
754
505
254
488
687
641
253
407
652
744
346
317
573
762
494
241
492
686
636
244
402
651
748
344
318
575
761
491
256
492
688
635
253
406
653
748
338
320
575
761
489
253
493
688
636
250
406
656
746
337
316
575
758
490
261
496
687
628
250
407
656
748
336
319
578
764
489
251
492
686
633
241
409
656
745
334
316
578
763
484
247
490
687
633
256
404
654
744
332
321
579
764
483
256
492
686
630
251
407
654
744
329
321
579
765
479
255
494
690
629
255
413
651
748
326
324
578
765
477
255
492
687
627
249
411
655
748
322
324
578
761
478
259
493
696
625
257
412
654
740
318
326
580
763
476
256
494
686
621
255
413
656
741
319
327
581
767
474
253
496
688
616
252
414
655
738
315
332
582
767
470
262
496
698
616
255
417
657
736
313
334
583
768
467
266
491
688
617
253
417
655
737
314
334
584
770
468
253
497
687
615
253
421
658
730
310
331
583
771
462
258
498
688
613
251
420
659
730
307
329
592
772
462
268
496
693
613
253
425
659
731
305
335
587
769
461
261
499
692
607
252
422
660
734
303
335
589
771
457
258
498
692
601
256
426
659
727
299
337
588
774
455
264
505
699
603
257
429
661
728
300
338
590
772
454
270
507
697
599
257
424
667
726
298
335
591
772
450
269
505
689
599
254
428
666
724
297
340
587
779
450
257
506
687
596
257
434
665
722
294
339
592
779
444
266
510
690
596
252
438
667
723
292
343
592
774
441
274
513
690
599
256
433
667
717
286
342
597
778
441
271
513
701
594
253
435
668
718
288
341
596
777
436
269
516
708
591
253
435
668
713
289
340
599
775
431
279
516
711
589
250
439
668
712
286
341
598
777
432
276
520
710
587
245
445
670
709
285
343
600
774
428
278
525
709
586
241
446
673
706
282
344
605
775
428
283
525
715
588
244
447
673
703
281
347
607
774
423
272
526
720
586
239
444
672
703
278
345
609
774
423
266
528
723
583
232
449
671
699
280
349
609
771
421
278
532
722
580
235
448
671
699
279
352
614
767
417
273
536
724
578
231
453
674
697
275
355
609
768
416
281
535
721
581
224
450
673
685
275
356
615
768
415
275
537
727
580
228
457
677
687
270
354
615
767
410
290
537
730
576
229
459
674
687
270
357
619
767
410
268
540
727
578
228
459
676
693
270
356
619
762
408
285
541
730
579
231
459
674
687
265
360
621
763
409
287
543
734
575
237
461
675
686
265
360
626
761
403
285
545
731
572
235
463
676
691
264
366
625
761
403
280
544
737
575
229
463
676
684
262
369
626
759
399
278
547
734
574
230
466
676
684
262
365
628
765
397
287
549
734
572
237
467
683
681
262
368
632
760
395
278
549
740
570
233
465
686
680
260
372
633
759
392
273
551
740
566
229
465
685
677
259
370
630
762
392
276
550
737
564
239
472
684
670
259
376
631
763
385
278
552
739
558
234
473
684
671
258
381
637
762
382
283
556
739
561
241
476
688
666
249
379
637
762
383
284
556
740
559
239
475
683
663
256
380
640
760
379
283
559
743
550
241
476
687
662
261
381
641
761
374
290
561
745
550
238
480
685
660
258
384
634
760
372
291
561
744
545
239
482
687
657
256
387
648
761
374
297
561
750
538
236
481
686
655
249
386
644
759
371
300
565
752
535
240
481
686
654
255
392
646
751
364
299
572
746
527
235
488
686
654
258
393
653
755
361
298
568
751
521
252
485
688
647
256
396
650
752
357
301
570
752
516
243
489
687
645
251
396
650
754
355
312
570
752
511
246
492
685
645
261
398
648
750
351
312
571
751
504
247
492
689
638
252
399
649
752
349
316
573
756
501
251
488
685
639
262
402
652
748
344
318
571
761
497
248
488
687
636
251
402
653
748
345
320
574
759
487
248
494
685
632
254
404
652
746
336
321
573
759
487
253
493
691
637
255
409
654
739
334
323
578
759
485
247
496
686
636
258
407
655
736
331
329
577
759
480
244
497
686
627
253
412
655
741
328
328
582
762
475
247
495
684
621
253
411
655
740
324
326
583
765
475
258
496
686
624
254
411
656
740
322
328
580
764
472
262
498
690
616
251
421
659
733
313
329
584
767
465
261
500
686
617
250
420
658
732
312
332
588
768
464
265
498
686
611
254
426
658
730
308
335
590
768
463
262
504
687
611
250
425
654
728
308
337
589
769
457
268
501
695
607
251
425
660
728
301
341
591
769
456
262
506
688
606
252
424
664
726
299
336
593
776
452
260
505
686
602
253
430
664
723
296
340
591
776
450
274
508
695
600
251
433
664
722
292
336
597
775
444
268
507
710
597
252
435
665
722
292
341
599
774
440
267
510
705
592
251
439
665
720
291
339
598
775
436
276
513
705
592
254
438
666
719
286
341
600
771
432
274
519
712
587
251
443
669
717
286
346
603
772
437
268
523
708
579
248
442
671
713
280
346
603
774
430
268
527
710
583
245
446
670
709
275
349
608
772
423
267
528
718
580
242
450
673
703
275
346
607
772
424
264
526
718
581
233
447
675
705
275
352
613
772
420
274
535
721
579
226
454
677
700
277
354
616
768
418
282
540
726
576
230
452
676
701
272
354
612
769
417
270
537
727
577
223
459
679
690
270
357
615
770
409
273
541
730
570
231
457
679
687
265
361
623
771
406
278
544
730
573
221
459
678
685
265
361
621
766
405
272
544
729
577
229
460
680
685
260
366
625
762
401
279
544
734
573
215
465
680
684
263
365
628
762
397
288
547
733
571
223
465
681
681
262
366
630
761
389
278
551
737
568
220
467
682
682
260
369
632
760
388
286
551
739
568
235
470
678
681
256
373
638
757
388
284
554
738
565
232
470
685
675
255
377
640
760
386
287
556
743
567
232
478
685
671
255
379
639
761
381
285
558
741
557
231
477
688
667
259
379
640
761
373
281
562
742
554
237
479
685
664
254
381
641
762
374
292
562
745
549
235
480
685
660
253
381
643
761
369
300
562
747
542
226
484
685
656
253
387
645
759
367
286
564
751
537
236
488
685
656
252
384
654
759
360
287
566
749
530
238
485
685
651
250
392
652
758
360
299
568
760
523
249
486
688
652
248
392
651
754
352
302
570
757
509
241
490
685
651
252
396
653
756
346
307
571
755
506
251
490
686
646
250
401
654
750
345
310
575
756
498
247
494
686
635
248
400
656
751
341
317
575
762
493
241
495
686
636
248
403
656
746
336
318
578
762
489
257
496
685
635
248
412
659
745
331
320
581
763
479
260
500
686
627
246
421
658
746
323
322
579
765
478
254
495
689
622
252
415
657
744
320
326
589
766
474
254
494
686
618
252
416
658
736
316
327
587
767
471
261
498
688
619
251
421
657
735
313
330
585
768
468
258
501
687
614
251
418
660
732
307
333
588
772
466
259
500
694
607
254
422
663
731
304
336
587
774
460
261
500
696
605
246
418
662
734
305
337
586
774
455
265
508
703
600
255
436
667
725
291
339
596
775
447
257
508
704
599
251
437
666
718
293
339
600
776
445
276
512
703
591
254
437
669
719
290
342
595
777
437
260
510
705
594
251
441
665
724
288
337
598
774
434
267
517
704
588
251
443
670
720
282
344
604
774
427
273
524
711
589
244
445
671
707
281
348
607
774
426
271
527
719
581
231
446
672
706
278
351
612
773
422
280
533
720
576
227
450
675
701
271
352
613
769
415
280
536
723
572
222
460
678
692
268
357
619
766
409
270
539
730
576
231
457
676
686
267
362
622
765
405
280
546
733
572
223
459
678
688
262
356
624
765
407
283
545
733
574
231
462
677
685
261
364
625
762
395
286
549
741
569
225
465
683
682
258
369
631
761
395
277
552
737
566
232
469
682
677
257
373
636
765
389
282
555
737
562
235
471
682
675
252
375
636
764
383
275
555
740
562
224
475
684
667
257
377
640
762
376
281
559
745
554
240
480
688
662
255
381
645
759
374
272
563
744
544
237
478
685
659
252
385
646
761
368
299
566
750
535
238
481
686
654
250
388
649
758
362
307
568
752
524
253
486
686
649
249
393
652
760
356
295
571
756
513
247
489
691
643
247
395
652
756
349
308
575
756
505
249
488
688
640
249
400
652
755
339
311
574
755
495
256
491
694
633
253
406
653
749
333
319
577
760
486
257
490
687
626
256
405
655
747
328
328
579
763
478
248
496
688
624
256
410
654
741
320
329
583
765
473
258
498
687
618
248
417
657
738
309
334
587
768
466
255
502
690
613
251
420
660
735
307
333
588
771
462
259
502
685
609
253
424
664
729
300
337
589
772
455
269
505
699
601
249
428
668
726
299
339
590
780
449
269
505
702
598
250
432
668
722
289
339
594
778
441
268
512
696
596
245
435
669
721
289
343
595
777
438
264
517
705
594
246
441
670
711
284
347
601
776
429
272
527
711
585
242
442
673
707
282
347
603
778
423
274
530
714
580
239
447
675
702
278
352
611
772
417
280
534
719
577
224
452
676
691
274
357
615
769
412
267
536
726
586
226
460
677
686
267
360
620
765
401
269
544
727
578
222
463
677
684
266
360
628
764
398
277
546
738
575
219
461
686
685
264
359
627
763
397
272
549
736
571
230
467
686
679
253
372
632
761
388
276
556
741
567
236
472
684
672
253
382
637
759
383
279
558
743
558
230
476
686
667
253
377
641
761
380
286
561
744
552
232
480
686
660
254
380
647
760
370
296
562
745
540
239
485
686
654
253
387
649
761
363
294
567
752
530
240
485
687
652
251
392
650
756
358
302
569
754
517
249
489
684
645
254
397
651
758
349
306
574
763
502
250
490
690
639
249
400
654
753
341
315
576
763
493
251
492
685
636
248
406
655
749
331
319
579
765
484
255
496
686
631
247
408
657
741
325
331
580
766
476
256
491
687
622
247
410
658
739
320
331
582
766
466
262
499
687
616
254
420
660
731
308
332
586
773
462
267
503
703
611
243
422
662
728
302
332
591
775
453
265
502
697
605
251
430
666
725
295
337
595
780
448
256
508
689
596
249
436
665
722
292
341
598
777
440
266
509
703
593
243
439
667
710
284
341
604
779
432
270
522
717
590
246
442
672
712
282
346
605
775
425
274
531
724
583
237
445
668
709
278
349
609
772
418
277
533
724
579
235
455
679
700
270
352
612
768
413
288
537
726
580
235
459
677
687
267
356
619
766
407
288
542
728
579
227
461
680
684
267
362
626
772
401
285
547
729
572
220
466
687
682
261
368
632
762
393
290
550
742
569
227
469
687
677
256
368
638
761
384
274
555
744
563
233
475
684
672
255
379
640
761
379
289
559
749
552
237
476
686
668
257
386
644
758
373
290
563
747
539
239
482
686
659
258
388
647
757
366
293
566
752
528
249
484
687
652
248
389
652
751
358
309
571
755
512
245
492
687
645
246
395
652
752
349
307
572
760
497
252
491
685
634
246
404
654
750
336
312
573
758
488
250
493
684
631
241
407
658
748
329
319
581
761
477
258
492
688
626
251
412
657
735
320
325
586
768
472
255
497
691
614
248
418
661
734
311
329
590
773
461
262
501
703
612
248
423
662
731
305
338
589
770
457
267
502
694
602
254
430
659
729
297
334
594
770
446
271
507
696
597
247
434
656
721
290
342
597
774
440
266
512
704
586
253
438
664
714
286
347
601
773
433
276
524
709
584
246
444
669
705
278
347
608
771
422
278
528
722
582
238
450
682
700
277
349
612
770
416
263
536
729
580
220
456
680
688
269
356
618
766
