CH1
417
558
666
398
367
554
718
477
340
484
667
605
333
413
557
662
402
373
545
716
489
336
483
671
599
336
417
554
661
401
372
540
720
492
341
486
676
594
337
416
549
658
403
373
546
717
466
339
505
678
591
337
418
551
655
403
378
548
718
462
337
496
682
586
336
418
559
653
403
380
553
721
480
336
490
684
582
338
420
558
648
396
383
547
720
469
337
492
685
576
338
426
566
651
398
382
553
718
449
339
509
686
575
338
432
571
649
374
384
559
719
448
334
497
686
573
340
440
575
652
379
385
566
717
471
338
492
687
564
340
442
575
649
362
388
559
711
464
333
498
686
566
334
446
583
654
353
388
564
711
439
337
518
685
563
326
448
583
656
345
394
564
708
437
334
515
688
562
330
447
587
662
334
396
562
701
441
338
505
687
555
337
455
593
666
338
396
553
702
456
339
508
685
553
342
457
596
672
332
398
558
696
432
340
529
685
551
346
457
598
674
332
401
561
694
428
344
533
686
550
361
462
602
678
330
409
564
695
406
341
525
684
550
350
462
601
681
330
411
563
695
418
341
523
686
550
349
462
600
683
329
408
569
685
408
345
536
688
560
349
464
602
683
326
413
569
686
410
341
537
687
545
347
467
604
682
330
413
569
687
393
346
533
695
543
352
469
601
683
329
417
569
686
413
343
534
707
540
355
475
602
682
330
415
575
684
396
347
547
704
555
348
472
604
674
334
420
573
685
400
353
536
710
536
345
476
605
669
325
419
570
688
391
351
540
712
534
346
481
610
664
331
420
566
686
392
354
540
709
530
327
482
612
655
328
422
572
683
389
355
544
714
554
338
489
617
641
324
418
572
683
390
357
538
719
526
328
478
618
642
328
423
570
682
392
359
543
721
516
328
482
619
638
334
419
572
679
388
359
546
725
513
331
483
628
636
328
420
574
677
388
361
548
720
536
330
481
632
630
320
421
572
677
398
360
538
723
528
330
483
634
620
320
421
570
670
401
356
545
721
497
334
483
640
618
328
416
573
674
385
360
541
721
492
338
483
646
612
325
418
566
672
397
365
547
721
507
337
485
654
610
323
420
563
667
396
363
549
718
483
369
487
656
610
334
416
556
663
395
365
537
719
482
339
483
664
606
329
414
559
671
383
369
550
719
479
336
484
663
602
331
416
553
661
400
372
545
720
481
338
483
672
607
331
414
554
664
404
370
553
727
459
336
486
676
597
330
417
553
659
398
375
549
718
469
338
484
679
594
335
416
556
654
388
382
551
718
462
332
489
682
588
332
416
558
655
402
381
550
722
472
333
493
687
581
333
422
565
659
398
380
554
717
437
334
490
686
580
334
419
569
653
399
386
572
717
457
339
491
686
574
334
430
575
649
390
386
553
724
457
335
492
684
572
334
430
572
650
392
387
551
721
453
331
495
688
567
338
439
574
652
368
387
560
717
429
335
496
691
570
332
439
576
652
354
393
574
715
447
331
497
686
566
330
442
576
650
348
395
560
710
444
337
502
686
565
332
445
583
652
347
394
557
708
444
338
503
686
563
330
445
589
656
337
398
558
710
424
339
505
685
560
330
454
592
661
338
400
560
708
425
341
505
685
561
336
458
593
669
337
400
550
708
424
342
513
684
556
345
454
598
670
332
400
555
705
425
336
511
687
553
346
455
596
675
336
399
551
702
426
335
514
685
552
347
458
596
678
336
403
554
699
416
341
519
685
550
344
460
597
684
335
404
548
697
414
342
522
685
551
352
459
595
686
333
407
558
690
429
341
525
687
547
350
462
603
684
328
411
570
687
410
337
526
685
545
354
461
597
683
327
410
570
687
415
343
527
687
547
355
462
595
685
335
412
573
685
406
346
535
693
546
352
468
603
685
330
416
570
685
407
346
531
700
544
344
470
603
684
329
414
576
687
410
343
536
701
539
348
470
601
676
327
416
568
686
414
350
535
707
537
347
474
606
672
325
418
572
684
398
349
538
708
535
341
477
609
665
320
420
576
688
388
355
540
710
533
339
474
611
656
317
422
579
686
395
350
540
713
527
335
479
610
651
327
421
571
682
395
352
541
712
526
336
480
618
643
320
423
575
683
396
357
524
720
521
334
479
619
639
326
421
569
689
389
357
552
720
516
329
477
626
633
329
420
571
679
390
358
557
716
512
321
480
631
630
329
422
577
678
397
362
554
720
507
331
478
636
624
325
420
574
676
395
361
543
722
514
335
480
640
616
327
416
569
675
398
361
541
726
491
342
482
643
612
332
419
568
674
395
365
548
727
482
336
480
648
615
328
416
560
667
398
366
540
724
478
338
484
652
611
331
414
559
667
400
365
548
721
465
337
484
661
607
332
412
546
663
403
372
548
724
479
338
483
667
602
327
414
551
662
406
372
545
722
476
339
485
668
601
332
418
553
659
404
370
546
723
469
340
484
673
593
336
415
551
662
398
372
551
721
479
338
475
676
593
333
415
564
656
402
374
550
720
469
338
478
683
589
333
413
555
660
407
378
533
721
468
338
476
686
585
328
420
559
659
386
380
553
721
464
339
476
686
582
333
425
568
650
394
379
556
719
459
337
489
685
575
333
424
563
649
390
381
557
715
448
336
501
685
573
340
429
571
654
387
380
555
720
451
334
499
687
569
332
433
575
649
380
388
569
714
448
331
500
683
567
331
435
572
652
370
383
561
717
442
330
514
687
566
332
442
582
651
362
391
576
708
443
331
513
682
564
340
445
586
655
346
392
561
711
448
339
498
685
562
326
445
589
657
339
398
563
715
433
337
515
684
560
336
446
589
661
338
393
558
714
437
334
521
689
558
336
451
593
664
340
401
568
708
437
331
521
685
559
334
456
597
666
335
400
559
702
419
338
542
685
556
336
456
600
672
337
402
560
702
406
340
528
685
553
337
454
602
678
339
401
577
699
416
338
532
685
552
344
461
603
682
331
405
556
699
429
340
527
684
552
343
463
601
686
330
407
566
696
409
338
550
685
551
346
461
602
684
330
401
571
692
413
343
541
686
549
353
463
598
684
329
408
566
686
408
340
530
687
566
353
466
599
685
329
408
567
686
406
346
524
698
541
357
466
598
686
335
407
571
685
408
346
532
705
531
341
471
600
684
334
413
570
685
404
356
533
708
525
346
471
600
679
330
414
569
683
419
349
534
711
546
348
462
604
673
330
416
570
686
385
348
535
712
537
340
479
610
667
326
425
567
686
398
346
534
716
555
337
484
608
659
326
417
567
686
391
348
547
720
525
332
487
613
659
329
419
576
685
405
349
541
720
525
328
473
618
664
329
418
575
685
377
353
541
720
523
329
475
623
634
329
423
572
684
394
355
542
722
535
328
478
628
620
328
424
572
683
392
360
563
721
512
324
483
634
621
323
419
572
679
385
359
546
722
510
328
479
637
624
323
405
574
677
384
360
549
724
505
328
480
644
619
330
405
568
673
397
361
545
723
489
333
478
650
615
331
413
568
675
398
366
553
723
492
332
484
652
608
333
423
558
672
384
368
549
721
487
333
485
653
609
328
420
561
668
388
365
543
720
483
333
485
662
607
335
418
558
669
394
369
552
721
479
338
483
671
602
339
415
559
663
385
369
548
718
477
338
486
668
605
335
417
566
670
402
371
546
722
471
342
483
673
599
336
416
556
670
399
373
550
721
469
333
489
678
597
335
418
555
655
395
376
551
721
468
337
487
680
593
336
422
559
656
408
379
553
723
461
337
490
684
587
333
425
560
655
403
378
552
723
461
339
485
688
583
334
429
560
656
392
380
554
720
457
340
490
685
583
335
436
567
651
378
381
555
722
456
337
489
684
572
332
437
565
650
383
382
560
720
454
334
490
685
569
327
445
578
649
374
384
561
719
450
336
497
685
568
332
443
571
649
357
387
564
716
446
336
495
686
568
329
427
577
654
357
390
563
712
445
333
495
685
567
330
436
589
654
347
391
561
710
446
335
499
686
569
334
436
585
656
343
390
559
706
444
337
503
685
566
336
448
589
658
339
395
561
706
442
337
506
685
545
336
450
596
661
330
401
559
708
439
335
505
694
538
332
452
596
663
331
404
557
706
439
335
510
684
544
341
452
593
670
333
399
556
702
436
339
514
685
537
350
456
597
679
327
402
561
696
428
342
515
685
537
350
457
601
676
336
404
562
696
423
337
521
684
535
345
459
603
678
333
409
563
695
418
335
524
689
534
346
462
601
684
333
408
567
697
418
342
523
686
535
356
463
601
680
332
409
568
693
416
341
522
685
553
351
461
601
684
330
408
569
690
411
347
528
690
550
356
462
605
684
330
413
567
691
408
349
527
687
534
351
465
604
684
328
411
570
696
403
342
529
689
540
357
469
599
684
331
412
573
686
402
345
529
695
558
352
471
603
686
331
413
577
686
400
346
532
703
549
347
472
601
679
328
411
576
690
402
348
533
714
534
342
472
601
677
327
415
574
685
399
352
530
714
541
339
476
599
674
327
417
569
685
399
351
533
713
556
343
478
609
664
323
421
572
684
399
349
533
716
545
328
480
611
660
328
416
570
692
400
353
537
717
523
328
475
612
652
329
420
572
684
397
353
541
721
534
328
478
618
647
322
420
575
683
394
354
538
721
543
327
477
620
638
323
423
574
679
395
355
541
724
527
325
478
627
642
327
421
571
682
392
357
545
723
505
327
476
633
628
325
422
572
674
394
357
546
727
506
335
478
637
624
329
421
571
677
389
361
547
728
515
330
481
646
620
327
423
570
681
395
366
547
724
492
334
481
651
614
327
419
568
674
397
364
546
725
479
333
480
653
614
332
419
561
666
397
368
545
719
485
336
485
655
606
328
417
565
669
395
367
542
721
494
338
482
662
606
332
413
559
669
396
371
543
723
475
336
485
665
602
332
415
554
663
399
373
548
720
460
338
485
670
602
336
414
556
662
403
370
547
722
465
336
488
672
599
338
415
556
657
402
374
546
721
473
338
486
679
595
334
417
555
658
400
375
547
724
455
339
488
683
591
335
418
553
656
402
375
554
726
449
339
486
680
587
338
421
554
655
398
380
550
722
452
334
492
687
585
336
420
561
654
393
380
551
719
455
331
485
684
583
332
424
568
654
383
385
554
718
440
333
491
685
576
334
428
571
651
384
383
556
721
435
337
493
684
575
336
433
571
650
370
384
560
717
437
338
493
685
569
331
438
577
653
357
385
559
720
438
333
495
685
568
333
443
578
656
354
390
564
715
431
330
496
686
565
329
442
584
649
352
389
562
716
430
339
498
686
566
339
452
580
659
342
389
564
710
426
337
500
689
561
334
447
585
659
341
394
563
711
424
335
502
685
562
340
451
590
664
335
395
561
706
430
332
504
687
559
339
455
592
670
337
400
558
708
430
332
511
686
559
333
454
597
673
327
395
563
706
420
333
513
687
553
342
456
600
686
326
401
564
700
414
340
515
687
554
342
457
598
680
328
403
561
699
423
336
519
686
551
349
455
601
682
334
408
564
692
422
338
527
686
554
352
461
606
685
329
405
567
693
411
340
526
685
549
345
463
602
685
329
407
567
699
408
341
526
686
549
360
462
603
684
329
406
568
698
416
343
514
686
549
354
467
601
685
328
416
572
688
410
346
528
687
546
357
469
600
682
332
414
571
691
411
337
528
698
545
351
466
601
683
330
415
576
686
402
344
539
702
546
343
470
602
679
330
418
575
686
400
353
542
709
543
341
473
602
679
327
419
568
686
400
355
537
711
557
333
477
608
672
326
415
570
682
395
351
532
708
557
336
476
610
668
328
416
573
685
397
350
536
714
539
333
475
611
658
327
415
575
686
393
354
537
710
508
327
477
613
650
329
419
575
687
394
347
545
718
505
328
478
615
650
327
419
574
679
391
353
540
719
503
329
479
618
647
328
416
572
679
389
363
547
717
505
328
480
623
640
322
423
572
676
395
352
542
721
523
324
475
630
634
317
422
573
679
395
357
549
721
517
331
474
637
631
323
423
573
676
398
356
546
724
517
333
476
636
626
329
427
574
676
393
359
547
723
505
332
474
642
619
328
417
571
675
399
362
556
728
493
329
491
648
616
328
418
566
673
395
358
548
726
488
335
488
657
611
327
416
563
672
395
365
550
725
483
335
488
656
611
329
415
561
673
394
368
548
718
479
336
492
663
606
328
412
558
672
400
369
545
720
480
336
495
664
606
336
414
556
668
400
370
548
718
478
338
484
668
600
337
414
558
664
402
371
546
721
478
337
473
672
598
336
420
552
661
402
374
548
719
475
338
479
680
596
335
416
556
660
402
376
551
720
473
338
478
681
593
341
418
556
658
399
383
549
719
470
339
490
685
583
322
424
565
662
390
399
556
715
463
334
490
683
583
330
421
564
658
398
382
549
717
466
336
491
687
579
338
423
566
655
394
378
548
721
463
335
490
687
574
327
426
568
654
384
384
554
718
448
335
493
689
575
333
429
571
652
376
380
559
720
441
335
495
684
578
329
435
575
650
372
385
559
717
451
338
497
689
570
332
436
580
651
366
384
555
730
458
328
505
689
563
334
440
576
651
356
388
561
716
441
335
499
683
562
324
445
582
652
349
390
564
710
445
336
500
685
562
325
446
584
654
341
390
564
713
444
331
490
685
557
330
454
586
654
338
393
565
708
446
334
496
687
560
334
449
590
658
333
400
561
709
442
335
494
686
559
328
450
590
668
333
399
558
708
443
343
496
684
559
337
453
593
671
328
399
558
704
433
337
509
686
555
335
457
594
672
337
398
561
699
435
337
522
685
553
347
461
598
676
330
404
562
700
427
339
521
686
551
348
463
600
680
331
404
562
696
422
338
531
685
550
354
462
602
681
330
409
564
696
417
339
535
687
551
359
462
598
680
328
409
564
694
419
338
535
685
550
349
462
602
681
329
412
566
691
415
345
540
686
549
354
461
602
685
329
414
569
694
410
343
531
688
548
355
464
604
685
329
413
571
693
412
346
527
687
564
353
465
601
685
328
413
574
698
411
344
527
687
565
355
470
604
684
327
414
574
691
407
342
527
689
566
356
467
601
684
327
413
573
686
405
346
533
692
557
350
469
601
683
333
415
572
686
400
346
532
706
536
342
471
603
676
333
417
575
686
399
352
536
704
538
341
474
600
676
329
416
574
687
402
350
532
710
550
344
473
603
671
326
416
574
685
399
350
538
720
533
337
475
606
669
329
419
574
686
396
343
537
714
519
331
477
613
664
328
418
574
683
395
350
537
719
519
332
478
606
662
328
418
575
683
393
350
533
715
522
328
479
610
660
327
418
571
684
392
355
541
719
508
331
477
616
655
321
418
572
685
396
355
543
721
504
332
477
615
646
328
418
572
675
393
354
542
721
504
327
476
619
646
329
421
573
685
392
358
540
724
509
330
479
622
634
320
427
575
679
394
358
543
723
498
329
479
627
637
327
418
574
681
395
356
547
720
493
332
479
627
634
327
422
571
677
393
355
550
724
494
330
477
633
630
320
422
571
678
394
358
546
723
493
328
480
641
625
330
424
559
679
397
360
551
726
482
331
482
645
623
315
420
568
681
397
360
552
722
484
332
480
645
620
329
419
560
677
398
360
551
721
482
329
483
651
617
326
421
560
675
408
362
551
723
480
333
482
652
611
327
418
561
677
404
364
549
722
475
337
478
655
609
329
414
553
671
396
364
551
721
475
337
484
656
610
328
416
560
668
397
372
552
724
472
336
484
663
604
338
412
561
668
384
362
549
724
464
336
482
658
608
335
408
558
667
401
368
549
723
465
334
484
668
603
334
414
558
668
385
373
548
722
462
337
487
667
602
333
410
550
664
410
370
549
725
457
334
485
667
602
338
411
556
663
392
370
556
726
478
334
486
676
604
325
411
559
662
399
371
546
724
455
339
483
677
599
329
414
555
659
411
373
553
723
455
336
485
680
598
336
411
559
658
392
375
555
724
449
334
488
682
592
331
416
556
655
398
376
545
721
441
334
488
686
589
332
417
557
656
400
377
557
722
434
336
489
689
584
336
418
557
655
390
379
555
722
444
335
492
684
583
334
422
562
653
393
376
554
722
443
332
492
687
582
332
424
564
651
396
381
556
719
416
335
491
686
576
322
428
566
653
380
381
561
720
425
332
495
685
576
336
431
569
651
371
383
577
723
437
336
491
686
571
338
432
570
652
383
386
562
718
432
333
494
686
569
332
433
571
652
375
385
560
716
413
337
500
689
566
328
436
579
653
368
385
563
721
434
336
498
686
566
335
436
579
652
364
388
571
717
435
332
500
690
564
332
439
580
652
358
390
551
717
425
333
495
686
565
324
442
584
651
357
391
563
718
403
327
503
689
562
328
446
590
652
351
390
569
719
433
332
507
691
558
332
446
587
654
345
395
565
719
414
332
506
687
559
331
446
589
653
336
396
577
714
418
332
506
684
557
332
449
595
655
340
398
568
715
424
334
495
688
558
326
452
594
654
332
401
567
710
418
337
515
685
558
332
453
593
655
337
395
565
711
423
339
511
687
558
334
452
599
659
334
399
549
713
466
340
509
686
557
338
454
595
663
336
401
557
705
450
334
513
686
552
326
459
597
665
332
395
557
708
445
334
508
686
552
331
459
597
669
334
402
569
706
438
335
515
685
553
341
458
600
671
332
402
566
702
448
339
513
687
553
349
459
602
675
326
404
574
704
437
340
515
683
551
349
459
601
682
333
402
579
698
421
343
513
686
572
342
459
600
683
329
407
573
694
422
338
505
684
551
353
462
600
684
325
404
555
691
434
339
523
686
548
355
464
605
683
325
408
563
693
420
341
529
684
547
349
461
600
687
323
412
569
693
415
343
521
686
569
354
464
602
686
327
409
559
690
405
341
524
688
548
358
465
599
686
329
416
569
691
414
345
532
688
546
359
462
599
685
324
414
562
693
415
345
516
689
547
346
471
593
683
331
411
566
688
397
343
530
686
546
347
468
595
685
328
413
580
693
406
344
532
689
548
355
469
596
683
333
413
574
688
403
343
534
686
547
348
471
602
681
331
417
560
687
401
348
539
704
544
349
471
600
676
324
415
579
687
397
344
539
705
541
337
473
600
677
330
416
575
686
400
349
536
709
539
338
475
602
675
325
417
574
684
395
352
539
710
539
342
481
601
671
320
415
566
686
393
350
540
706
536
341
480
605
670
326
418
572
686
395
351
539
714
534
331
478
605
661
326
419
577
686
395
345
540
721
534
336
481
609
663
319
417
575
685
389
353
541
718
532
331
479
608
660
327
419
570
684
393
352
540
718
529
328
475
614
657
320
418
567
684
388
361
545
720
527
331
480
617
650
324
423
570
684
393
350
545
717
523
335
478
620
645
327
421
573
683
391
353
542
718
520
329
479
619
639
325
422
570
683
391
350
544
722
514
333
478
619
638
324
425
569
679
392
356
544
722
514
327
480
629
634
325
423
572
681
392
352
547
723
511
327
480
630
630
328
421
575
679
392
355
549
723
510
330
479
632
628
330
420
564
678
394
357
549
725
506
332
478
637
622
332
430
580
678
396
367
546
721
505
329
477
639
623
329
418
568
680
398
359
547
721
505
333
481
641
620
325
423
558
675
397
356
547
720
500
334
480
648
613
325
421
567
677
399
360
547
719
496
335
482
649
614
330
419
569
674
386
362
552
719
493
331
479
652
613
331
415
552
670
399
368
549
723
489
333
483
654
611
332
420
549
665
397
368
547
723
489
337
487
655
610
335
414
562
676
399
363
546
720
484
337
488
657
608
330
410
564
670
404
367
554
724
483
337
482
663
605
329
414
565
668
405
368
529
725
479
336
483
669
605
337
412
565
667
403
369
549
727
477
335
485
667
605
337
410
560
665
390
369
547
722
476
342
482
671
606
339
414
559
660
402
370
544
721
481
336
485
673
604
335
416
562
663
404
372
551
721
473
335
486
680
598
338
415
555
660
401
369
547
720
469
339
482
681
597
335
413
553
659
399
373
546
724
469
340
487
682
594
334
414
553
658
393
377
553
724
444
335
488
681
592
334
419
556
658
393
378
545
724
467
336
491
685
590
336
423
560
654
400
377
552
722
461
337
490
686
585
337
422
557
653
402
379
522
725
459
336
488
685
583
337
420
562
657
392
379
546
718
438
333
489
686
580
327
427
558
653
389
381
552
720
463
334
489
686
577
337
427
563
652
380
379
554
714
455
336
492
686
576
337
427
568
654
387
379
546
722
460
335
490
687
574
333
431
570
650
376
386
560
718
451
333
494
688
571
330
431
571
650
371
391
560
719
445
330
498
684
570
330
437
570
652
360
387
566
716
436
332
497
686
570
332
435
581
655
366
388
558
720
429
337
503
687
562
325
440
583
654
354
385
566
720
429
332
486
691
564
331
445
585
654
352
386
565
724
435
330
482
686
565
325
443
588
656
344
393
560
719
452
329
499
687
562
333
447
587
653
329
392
568
715
443
332
496
695
558
320
451
595
653
338
397
567
716
439
329
511
686
554
323
450
600
652
332
395
565
716
432
339
514
693
553
323
455
601
653
327
396
569
710
409
339
521
692
547
329
461
603
653
329
404
565
708
434
343
530
687
545
325
463
603
657
327
402
575
706
416
338
535
690
543
324
463
610
659
324
405
575
703
419
342
528
688
540
328
469
610
660
319
405
572
703
396
335
537
699
539
324
467
615
664
324
407
569
695
409
343
542
691
537
330
469
614
667
318
412
575
699
403
338
550
688
547
330
471
619
669
316
406
575
691
406
342
537
695
538
336
469
613
671
319
409
574
695
407
342
539
686
535
344
469
615
674
319
413
574
691
404
341
545
686
537
336
471
618
676
314
417
581
695
397
344
558
697
542
343
467
618
677
323
417
579
687
397
343
541
690
537
347
473
622
679
319
414
582
695
404
339
546
695
532
342
475
620
679
318
413
577
699
393
344
548
693
533
343
474
619
676
314
417
582
697
392
347
562
695
543
338
471
619
679
318
416
583
692
392
340
544
709
533
339
480
617
674
312
417
583
690
396
337
550
709
531
346
476
618
672
316
416
582
688
398
346
548
712
529
347
475
625
671
322
425
585
685
386
349
575
714
526
343
482
618
666
314
423
590
685
383
350
549
715
530
337
486
619
668
321
421
590
686
388
349
542
716
533
337
482
620
662
312
422
587
686
387
349
547
721
508
336
484
624
669
317
422
589
685
382
350
563
726
500
326
486
624
656
310
425
590
687
379
349
547
725
534
323
489
624
651
313
424
590
685
375
349
535
726
522
326
476
626
651
318
432
585
687
375
353
551
725
511
326
487
626
647
316
424
581
684
373
352
567
721
505
320
493
631
640
315
429
590
683
377
357
549
724
530
321
500
634
635
315
428
592
679
376
357
544
734
502
322
485
640
645
317
423
593
679
377
363
558
727
494
324
489
646
622
317
435
589
674
371
361
571
725
480
328
501
655
586
311
444
601
668
359
368
572
730
486
329
511
668
581
306
445
610
660
354
376
564
723
460
326
506
669
582
309
448
609
660
356
373
579
722
458
329
511
673
578
301
445
607
661
361
374
590
722
454
329
508
681
574
305
432
616
660
348
379
582
722
452
335
518
686
554
301
465
623
649
334
392
587
721
423
340
532
690
535
302
468
636
641
327
393
602
717
409
336
539
693
530
293
469
633
632
331
395
606
722
410
341
536
688
531
303
466
633
634
329
400
597
719
412
344
533
690
537
309
457
623
637
339
401
597
723
416
340
530
688
541
310
455
620
639
337
397
589
717
420
338
526
683
546
312
453
612
638
355
393
590
723
424
339
523
687
552
313
450
609
641
359
390
580
717
417
341
515
686
554
326
441
590
656
369
388
584
729
443
340
509
686
566
326
436
586
656
365
388
571
721
443
339
505
686
569
325
441
582
647
375
386
579
721
438
337
506
688
569
321
434
585
655
371
387
572
725
419
337
506
685
565
319
435
587
651
370
392
585
724
436
336
510
686
557
327
441
587
643
366
390
570
721
429
338
508
689
551
330
446
591
642
369
394
579
718
428
340
513
699
549
324
459
594
639
363
394
579
719
401
337
516
700
545
326
455
596
639
355
395
583
713
420
337
515
706
546
321
450
597
640
349
393
581
713
420
339
511
706
547
321
448
605
636
345
396
591
715
419
332
516
713
548
324
445
605
642
340
400
583
715
397
335
515
714
545
321
444
606
645
331
401
578
716
418
332
519
709
543
314
460
607
644
329
402
581
705
416
337
523
706
532
324
463
609
644
327
403
589
703
415
340
523
702
531
322
464
614
645
324
406
580
702
404
338
524
700
531
327
467
616
647
313
407
574
701
408
336
531
696
513
323
468
620
656
322
413
576
696
407
340
527
702
518
330
470
620
654
321
411
593
703
402
341
536
698
515
326
472
622
657
321
413
580
691
405
339
534
697
513
329
471
631
661
319
414
578
700
421
340
535
699
538
327
470
627
660
322
415
575
693
390
342
537
698
538
332
476
629
663
312
418
597
693
393
346
539
700
542
341
477
629
667
315
421
586
692
394
346
526
700
543
341
479
631
663
317
424
591
686
388
342
549
704
520
335
482
633
658
308
423
595
684
382
352
562
710
514
339
483
632
659
318
416
603
686
378
353
561
715
512
336
484
632
658
316
428
594
685
380
351
550
717
509
339
485
628
656
315
428
597
685
359
354
563
717
509
332
488
630
652
314
426
612
685
374
354
565
718
508
329
493
636
646
315
429
608
684
368
359
566
725
502
322
494
638
640
309
428
597
685
370
357
567
724
501
319
492
637
639
316
433
599
682
358
357
572
726
499
324
495
638
632
312
434
601
678
364
359
572
721
496
326
499
644
630
309
434
603
674
370
365
568
726
490
321
498
646
619
314
431
596
674
368
366
579
724
487
327
495
648
610
312
434
597
673
370
366
575
724
483
328
499
654
605
315
436
595
668
367
370
575
723
478
331
494
658
599
311
437
597
676
381
371
572
724
476
332
501
661
597
316
435
597
665
367
367
586
726
470
332
498
667
592
318
436
598
660
375
373
575
724
466
335
503
675
585
318
439
598
666
379
372
587
722
463
337
510
682
581
314
436
591
657
381
376
572
724
469
333
501
679
581
317
436
589
662
368
377
576
724
463
336
503
683
577
319
440
590
653
367
385
563
718
451
338
508
685
576
323
434
590
651
374
382
573
727
447
335
501
687
573
329
434
582
652
376
384
570
721
462
336
503
687
568
326
434
588
648
372
391
569
715
467
334
508
688
564
325
434
586
647
372
390
582
720
437
337
506
684
561
321
439
588
644
361
393
572
718
445
343
514
689
553
324
437
587
643
365
391
570
717
437
333
510
696
552
322
445
597
647
362
394
568
714
455
339
510
701
546
324
446
597
639
359
395
587
720
436
337
515
698
544
329
450
599
636
340
396
575
716
429
339
514
704
544
325
454
604
637
327
397
581
714
405
338
518
704
540
323
456
607
636
345
398
580
711
414
337
520
705
538
325
463
611
636
334
401
586
715
398
337
525
704
535
318
462
613
638
328
405
582
708
399
339
525
702
533
317
464
617
639
317
404
580
703
412
339
522
699
531
324
474
619
642
321
408
576
700
408
342
521
700
530
325
472
624
649
313
411
578
703
405
343
524
697
528
323
475
627
651
318
414
575
691
401
340
533
701
523
333
477
627
653
307
415
585
692
393
345
548
700
521
333
476
629
659
316
417
582
688
374
347
550
700
520
332
480
630
659
316
421
591
685
397
348
553
703
517
330
479
632
660
314
422
593
686
386
349
553
706
520
342
483
634
661
312
425
591
686
382
354
548
715
525
338
483
633
655
311
423
595
683
361
353
548
714
525
335
488
633
657
312
428
601
682
361
356
551
717
522
337
490
631
651
315
443
614
683
368
358
559
718
488
328
491
639
644
317
435
591
679
367
363
564
722
478
337
495
643
632
306
435
606
676
351
358
569
736
468
329
499
645
628
305
470
599
676
331
350
570
712
476
326
481
663
613
294
443
603
672
351
364
571
725
477
328
499
652
610
311
442
604
673
349
373
574
734
474
274
514
682
593
314
455
596
666
338
361
563
731
472
319
497
676
593
316
447
612
660
350
374
577
727
468
325
510
672
580
308
443
613
664
352
375
582
724
460
325
505
677
578
306
447
614
661
356
381
580
725
454
327
512
679
572
310
443
615
654
359
386
575
721
451
335
512
683
569
314
445
615
654
359
381
564
723
447
336
514
685
565
314
444
613
648
358
384
578
722
437
338
526
686
560
310
446
615
650
357
386
578
724
435
338
526
685
559
320
443
603
649
364
390
581
723
432
343
523
685
560
318
446
603
639
353
388
579
722
428
338
526
687
555
323
446
603
639
352
392
581
718
428
340
524
687
555
318
445
604
641
361
392
583
719
421
342
526
693
546
315
446
598
634
368
395
590
716
416
343
532
698
542
314
452
606
635
358
402
597
717
412
341
527
708
538
321
454
605
636
348
400
584
714
413
343
522
710
550
322
459
611
628
350
403
588
708
405
342
523
710
542
323
465
614
628
327
402
603
705
403
343
532
720
529
318
464
616
629
328
405
597
707
398
342
530
716
539
315
470
621
630
325
412
597
703
396
345
530
715
510
316
475
624
630
319
416
597
698
395
354
536
711
504
312
478
631
628
311
415
607
698
392
349
539
711
502
319
480
633
629
312
419
590
688
387
350
544
708
488
320
484
638
636
305
422
590
687
384
349
547
705
494
317
487
644
635
301
427
598
685
379
347
550
705
492
327
489
641
635
306
430
602
698
382
352
558
707
489
321
490
647
637
305
434
601
681
375
354
558
705
498
328
490
651
637
300
431
614
686
365
363
560
705
498
324
483
653
635
300
434
604
684
363
363
562
711
492
334
487
652
629
307
444
608
680
365
363
569
712
485
332
492
659
624
302
445
617
675
336
365
577
718
473
326
513
663
615
298
450
628
672
340
367
582
722
462
325
520
674
605
296
449
628
671
333
372
588
727
454
318
530
685
592
293
455
632
662
323
377
596
725
441
323
538
686
580
285
463
638
659
308
383
601
728
430
322
542
685
565
279
465
639
653
312
386
603
723
427
320
539
689
568
292
465
639
660
313
387
607
726
423
326
539
685
553
294
465
641
650
307
396
603
727
427
327
535
686
552
289
464
640
650
320
391
600
731
424
330
534
685
555
300
464
642
646
325
390
604
727
416
331
534
688
544
292
465
646
640
317
395
608
727
408
332
537
691
550
298
468
647
637
309
395
606
728
399
334
548
705
535
297
473
653
631
315
402
608
722
387
344
542
715
507
295
474
652
626
302
405
616
720
381
343
547
719
505
296
473
657
626
314
407
613
720
380
343
545
723
519
296
475
650
627
312
402
610
716
386
344
541
718
521
303
465
634
628
326
405
615
718
393
337
536
720
510
308
463
625
623
329
402
604
715
396
343
538
718
510
309
464
625
627
338
403
602
716
397
342
534
718
512
312
463
621
624
338
404
594
713
397
345
532
716
506
318
463
617
622
347
405
605
708
399
348
533
716
506
318
461
612
624
347
409
595
705
399
349
533
714
505
320
467
618
625
344
411
596
698
393
348
533
716
501
314
469
622
626
334
409
589
701
396
346
537
716
499
318
473
626
622
323
411
596
699
397
344
536
718
514
330
476
630
622
319
413
587
695
390
344
537
717
514
322
478
630
625
315
421
599
694
392
347
541
714
502
328
483
633
627
313
422
598
688
387
345
543
713
506
319
482
636
625
307
425
598
686
396
352
548
715
502
314
480
649
624
302
430
610
684
371
354
557
719
501
324
487
651
631
292
427
604
685
369
352
557
713
494
316
492
651
631
305
432
610
687
370
355
558
710
498
320
488
653
635
305
434
609
688
359
353
563
709
500
320
481
649
636
303
434
614
684
364
357
557
707
502
334
482
646
637
305
434
602
687
366
359
563
709
503
333
497
645
638
311
430
613
683
364
357
558
708
506
337
482
645
644
316
431
606
681
350
357
564
714
500
339
483
646
643
309
435
603
681
363
360
557
715
500
337
486
644
638
308
437
604
679
361
362
566
710
498
330
494
646
637
314
440
614
677
362
365
562
715
498
336
487
645
628
310
438
595
677
359
366
565
720
492
328
496
646
622
311
437
603
673
357
370
567
715
494
329
494
648
617
309
439
608
671
360
367
563
712
490
329
499
653
608
310
438
606
673
359
368
568
723
489
323
492
651
603
318
440
605
672
356
368
566
721
481
324
497
653
601
310
437
603
666
362
368
568
723
481
331
493
659
600
313
438
605
663
366
372
569
729
477
326
492
658
589
317
443
603
663
360
374
571
723
469
333
493
669
588
315
443
605
656
367
374
572
720
468
337
499
670
579
316
441
602
655
367
375
570
724
450
337
507
676
575
313
444
598
654
367
379
577
720
441
341
504
678
573
319
444
597
653
366
379
577
720
436
338
507
681
568
317
438
604
648
369
379
577
720
433
340
507
685
568
321
437
596
648
369
385
574
717
443
344
505
685
565
323
440
592
648
369
385
571
710
453
338
509
684
563
326
440
586
646
367
388
571
709
451
340
512
686
559
321
438
590
643
362
389
573
715
440
339
511
686
555
328
444
583
635
372
393
586
714
430
344
512
687
551
327
444
587
638
365
393
586
710
426
343
513
688
545
329
446
596
635
366
398
589
710
424
342
511
700
545
331
448
591
636
366
399
576
708
420
343
521
707
539
326
449
601
632
347
394
575
708
417
342
519
711
534
327
454
609
634
347
400
576
705
414
344
522
708
533
329
456
615
632
345
406
583
705
413
341
524
706
531
326
462
610
631
334
407
593
702
410
337
525
701
532
323
464
614
632
334
406
573
697
407
345
527
701
532
324
466
616
634
333
409
576
697
404
340
530
701
530
329
471
616
632
328
414
585
693
400
347
533
700
524
318
472
623
636
312
416
594
690
399
348
536
694
523
326
475
627
638
315
418
584
687
396
350
542
700
518
334
477
629
638
316
416
593
691
395
348
537
695
518
331
481
627
649
315
416
590
689
393
351
539
691
521
327
480
630
648
320
418
585
686
398
351
542
692
517
330
479
633
651
316
421
607
686
386
353
545
707
516
341
482
630
652
314
420
587
686
393
362
548
700
512
337
483
634
657
311
425
591
687
377
359
548
701
512
346
481
637
650
321
426
593
685
375
361
553
699
506
345
488
634
653
319
430
599
684
366
358
554
703
506
341
489
632
649
314
432
599
681
365
359
554
711
505
344
492
639
649
310
432
599
677
374
358
559
715
502
343
492
638
642
313
432
600
677
365
359
559
713
496
338
490
638
640
321
430
596
675
360
359
557
718
498
333
497
641
635
317
436
599
676
369
366
556
714
492
332
494
638
629
312
436
606
672
365
367
572
713
492
337
497
638
620
319
435
597
680
362
366
581
718
493
331
499
642
615
317
436
597
671
359
369
557
719
490
333
503
650
608
319
440
601
671
375
370
574
718
484
334
500
652
602
321
439
595
668
376
369
572
718
482
331
501
654
599
320
439
598
667
363
370
582
718
477
331
502
656
593
323
441
598
662
367
376
592
719
470
331
505
662
589
321
441
601
663
356
371
571
715
482
330
502
664
586
317
441
600
661
366
375
564
719
477
332
505
669
579
322
442
604
658
364
384
564
725
488
335
506
670
577
322
441
598
654
368
380
569
722
470
341
505
674
574
313
437
599
656
361
383
567
718
449
340
509
677
576
317
440
600
648
358
386
574
716
438
340
507
680
568
325
437
594
645
369
381
566
714
436
342
510
683
567
327
441
593
648
369
388
570
717
431
344
513
685
565
322
441
595
645
375
385
579
718
425
345
506
686
561
323
445
594
639
358
389
577
716
425
343
506
687
556
323
443
591
640
374
392
577
712
405
337
510
687
558
333
442
588
638
372
388
575
714
429
342
511
688
553
329
446
589
641
375
394
577
710
430
342
512
689
550
325
445
596
637
362
396
577
710
431
342
512
687
545
322
451
596
633
366
397
573
704
415
342
516
693
543
333
452
597
633
360
399
579
706
440
344
513
700
538
332
453
600
631
353
400
568
706
423
350
515
698
534
329
456
603
631
340
405
583
708
414
342
525
700
531
333
460
608
629
345
402
581
698
401
343
524
709
529
321
457
610
630
337
408
587
700
408
343
533
711
529
321
464
612
630
334
407
584
699
408
340
533
702
526
327
468
616
631
319
411
584
701
407
343
534
698
527
326
470
620
629
325
413
578
699
393
345
532
697
528
323
478
619
630
317
412
584
696
391
349
530
693
543
333
472
623
634
324
416
598
696
400
346
531
695
510
330
472
624
633
323
415
584
690
400
344
531
702
511
329
477
625
638
316
414
585
687
381
352
534
701
510
325
482
629
644
317
414
586
684
378
348
539
700
502
326
479
629
646
317
418
596
685
389
350
540
700
508
323
479
627
647
314
420
580
686
392
353
541
696
506
329
480
633
651
310
424
585
690
376
349
549
699
508
335
482
633
651
316
426
589
686
381
359
544
695
511
338
481
636
650
317
424
591
684
384
355
548
702
512
343
472
636
654
321
425
584
681
382
354
548
701
513
343
479
638
652
317
431
593
685
364
354
548
708
514
341
479
636
649
317
431
598
684
375
357
556
710
507
339
483
635
648
318
433
594
686
371
361
559
708
503
336
488
634
647
318
436
597
682
372
360
561
712
508
342
478
640
648
310
432
598
680
358
359
557
714
505
334
480
639
642
312
435
603
682
372
363
560
710
498
336
495
637
635
314
434
598
679
373
363
562
712
497
337
501
636
633
312
440
598
675
366
364
561
719
499
333
495
641
628
313
437
598
676
355
363
563
706
497
335
494
641
624
320
438
596
671
365
371
549
713
492
338
507
639
619
316
443
600
672
373
371
565
711
489
334
504
641
607
314
440
612
671
367
368
564
707
489
331
497
647
618
322
443
585
659
349
366
567
745
500
335
497
647
594
315
439
604
671
371
378
563
713
482
329
501
644
606
323
438
610
671
361
370
564
717
484
334
479
642
604
311
446
613
684
374
387
567
712
478
326
503
640
599
332
453
597
663
343
391
572
725
486
331
488
645
587
314
435
595
659
366
377
571
721
476
333
501
655
596
317
436
593
664
357
372
565
719
470
337
496
659
589
318
440
603
661
371
375
567
719
475
335
490
659
587
317
440
597
658
365
375
567
718
474
335
495
663
587
327
434
589
656
373
375
582
718
461
341
506
668
585
325
437
587
656
366
374
571
718
463
340
511
669
578
322
427
588
658
374
384
564
721
461
340
512
673
578
319
434
582
655
355
386
565
721
459
346
507
675
577
320
433
579
652
376
381
576
708
458
346
497
674
591
328
434
578
655
388
379
565
712
456
345
498
680
583
333
431
575
647
381
382
565
716
454
344
498
680
582
329
438
580
648
370
386
566
714
448
345
497
685
561
334
435
574
644
382
388
570
711
447
342
507
687
551
326
433
576
646
386
388
572
718
445
343
500
686
553
333
430
572
643
391
386
564
708
446
344
505
684
552
333
436
581
644
376
390
563
714
441
338
504
688
557
335
441
579
638
382
391
562
709
440
340
509
687
561
333
431
583
639
383
404
557
710
437
340
509
686
562
327
430
588
636
374
399
568
710
435
345
508
685
559
325
430
590
634
368
398
559
710
430
341
504
685
554
332
446
589
632
363
397
568
709
449
340
510
685
547
331
460
592
639
353
398
577
707
428
342
509
687
544
332
459
596
635
346
398
573
705
428
344
510
689
544
333
462
600
639
340
399
563
704
427
341
514
692
541
331
466
595
639
335
403
569
703
438
345
511
686
539
330
467
599
643
336
403
589
692
426
347
516
685
540
332
470
601
643
327
408
576
696
425
349
521
687
534
324
473
606
645
330
405
560
695
419
345
527
686
535
334
475
608
648
331
410
574
689
410
344
522
685
538
331
476
608
650
324
413
579
685
417
348
525
686
534
337
479
605
654
317
410
573
684
411
345
533
685
531
337
479
609
658
332
415
563
682
411
346
533
685
535
335
476
614
661
329
417
576
685
391
347
534
686
532
338
478
615
662
330
415
571
685
403
350
533
683
529
343
481
617
667
328
423
575
687
403
349
536
685
530
345
482
617
665
329
421
577
685
398
350
536
686
530
352
485
616
666
326
420
580
685
384
353
539
687
529
349
486
616
674
326
421
580
686
404
355
541
690
526
355
487
614
666
330
422
573
685
393
353
544
688
524
352
489
615
671
330
428
586
685
394
357
540
689
525
351
495
622
662
325
424
587
683
382
362
548
707
521
344
492
615
665
330
426
586
682
400
359
546
705
519
350
490
612
658
329
426
587
685
388
360
549
705
516
336
495
613
652
331
429
590
676
389
362
545
706
514
345
498
618
644
325
426
578
678
388
360
549
709
511
335
498
621
640
328
429
579
681
377
361
551
709
516
338
478
626
634
322
431
591
678
382
362
548
710
511
335
476
629
626
325
434
591
674
383
363
549
717
509
335
480
638
624
330
432
581
670
385
368
535
716
507
334
481
637
615
332
433
582
667
369
368
556
718
494
337
488
640
611
326
435
587
670
386
369
559
718
487
333
492
646
606
324
432
593
667
385
370
561
716
484
336
492
648
605
326
432
579
668
389
373
553
715
465
334
490
654
600
330
432
575
664
386
375
559
714
469
341
488
658
593
330
430
572
660
388
372
557
711
466
341
495
662
591
323
430
586
661
385
380
557
711
458
345
495
668
589
327
428
576
656
383
382
564
713
468
338
494
668
584
328
431
577
657
384
383
558
720
468
344
498
677
579
328
429
576
650
393
382
558
720
467
342
499
681
578
331
429
585
647
384
384
561
716
462
340
504
685
570
325
435
581
643
375
388
580
709
450
343
508
686
570
329
436
585
641
381
389
566
713
437
343
508
686
563
328
434
587
639
375
395
571
719
434
347
508
687
555
325
437
584
637
385
394
566
710
441
348
509
686
547
324
452
591
634
370
396
583
712
428
340
511
686
551
324
451
594
634
364
395
601
714
426
344
513
690
544
326
451
600
633
350
395
586
708
421
341
514
710
542
328
452
595
633
348
401
578
713
428
345
517
704
540
325
458
600
637
343
399
588
705
419
344
519
702
536
327
462
606
638
341
403
604
700
416
339
520
705
535
323
467
607
636
328
406
586
702
415
342
525
702
532
323
466
612
634
325
408
582
697
415
347
527
703
531
329
471
613
638
323
410
589
695
425
343
529
699
531
325
472
618
638
319
416
589
692
406
346
533
699
527
323
470
617
644
321
416
587
694
404
340
533
694
527
323
476
618
644
313
415
585
694
399
344
541
693
527
331
477
627
649
318
414
586
688
409
345
537
688
526
333
479
628
649
320
430
589
685
394
347
542
684
520
339
479
629
654
318
421
581
686
392
359
544
688
520
340
479
630
651
310
422
589
686
388
354
545
687
518
330
479
630
654
316
427
590
686
375
350
548
692
514
338
482
636
657
318
425
597
686
384
353
544
692
513
339
484
633
658
319
424
600
684
381
354
537
702
512
344
486
630
655
314
429
598
685
373
356
544
711
509
341
486
631
652
317
423
603
685
376
356
550
718
491
345
490
629
652
316
430
604
684
373
360
554
716
516
337
479
632
652
320
431
595
678
380
360
555
716
504
332
494
633
643
318
435
597
677
382
365
572
717
500
335
496
638
637
316
433
597
676
373
364
562
715
500
335
483
636
632
313
436
592
671
373
365
560
719
495
335
497
637
607
313
440
592
673
371
364
563
722
494
331
499
638
619
316
442
591
676
369
366
564
719
488
328
495
644
635
318
440
592
670
378
369
566
719
487
328
495
655
609
313
428
595
669
373
370
565
723
483
332
497
654
602
313
442
597
681
365
369
565
719
478
335
498
654
593
316
438
597
664
364
373
568
721
479
332
504
661
582
321
440
592
657
371
375
568
713
472
333
501
666
590
320
442
595
677
368
377
569
721
468
336
502
667
589
321
434
593
658
364
378
568
718
466
336
503
671
581
319
415
596
657
362
380
566
719
461
336
503
671
583
326
414
592
658
367
381
569
716
459
342
503
679
581
323
435
593
650
363
380
568
717
456
338
504
677
573
321
436
589
651
370
385
567
719
454
340
503
683
573
322
433
585
651
369
385
569
717
447
342
507
684
574
323
440
585
663
368
387
567
714
443
343
504
684
569
331
436
585
643
376
389
570
717
441
341
505
686
569
331
436
580
641
383
389
571
728
435
345
505
686
563
325
436
581
635
383
391
570
714
437
343
510
690
559
328
438
587
637
376
398
572
714
432
343
512
689
554
330
445
586
633
377
397
570
721
430
341
515
684
551
327
446
587
635
369
393
568
711
426
344
509
688
542
327
454
589
634
362
397
567
710
426
344
516
704
542
323
463
594
630
352
398
571
705
423
341
514
704
538
329
457
598
636
340
400
574
703
425
342
517
693
539
326
456
603
640
347
402
587
702
420
341
516
701
536
321
460
605
633
338
407
581
702
415
341
519
697
538
324
473
610
636
334
405
579
701
414
343
523
699
536
320
466
608
636
325
411
586
697
411
341
528
697
534
328
465
612
636
323
413
591
699
412
339
531
695
530
328
469
616
640
322
