642
441
92
490
613
511
530
454
691
470
363
508
654
495
428
605
449
588
501
460
527
516
500
498
479
565
518
484
500
598
511
485
514
457
607
584
405
529
629
558
423
533
540
573
500
467
476
552
540
469
478
500
651
457
427
521
707
392
496
604
503
460
472
482
547
696
437
521
498
570
486
487
444
613
555
508
474
580
600
415
519
496
559
554
432
519
191
548
524
481
783
665
875
504
414
794
443
476
536
552
447
502
592
518
582
485
277
520
557
503
606
493
547
312
572
480
629
651
676
537
126
528
548
0
591
698
557
370
509
602
653
430
507
622
859
485
698
642
542
612
456
472
482
629
481
465
524
533
688
512
485
674
543
478
487
679
567
3
523
131
51
571
568
574
618
476
371
519
529
684
495
472
503
638
531
471
638
510
313
514
445
755
535
523
599
658
643
607
471
548
693
487
593
504
838
498
0
516
990
563
633
587
570
531
445
385
286
753
166
581
0
639
508
549
736
815
621
235
579
430
465
650
503
643
431
359
390
0
637
668
552
80
679
353
576
456
574
493
473
507
465
537
699
609
619
469
698
616
523
379
543
719
8
557
0
660
346
510
526
651
525
569
629
471
587
526
449
405
570
604
486
526
502
720
461
427
455
698
492
494
436
683
465
405
509
753
594
551
500
86
792
9
756
500
748
546
436
508
558
564
482
434
510
570
510
494
455
585
552
458
593
521
649
450
137
635
0
654
563
783
567
816
493
56
499
564
717
631
538
709
574
297
697
511
595
185
549
546
292
386
592
552
717
528
494
453
465
514
454
573
532
635
446
449
508
515
650
657
458
578
619
404
497
446
455
609
600
561
552
504
472
463
551
549
468
544
505
632
489
466
479
623
465
619
452
533
537
537
541
470
600
495
484
457
559
456
462
646
628
569
518
464
467
751
315
547
535
654
514
296
435
684
470
632
590
448
658
543
269
0
425
545
0
904
623
743
529
557
500
685
490
554
444
610
489
449
475
598
601
143
500
522
480
639
502
496
590
551
524
579
518
814
475
144
515
521
363
594
647
764
774
667
558
413
672
396
527
487
605
431
454
509
603
507
478
490
554
548
493
562
386
885
470
515
677
457
501
462
468
546
545
432
545
499
588
519
574
619
558
533
407
514
297
510
524
553
619
674
554
479
528
622
492
438
651
495
572
536
523
537
496
509
293
543
562
503
455
521
422
588
543
385
551
766
520
418
560
542
477
492
467
415
630
443
626
502
574
541
492
542
463
599
540
464
681
523
400
478
537
538
600
389
568
710
528
373
608
588
591
523
478
472
562
524
483
513
643
538
531
510
523
535
500
469
420
781
1023
450
671
408
614
0
528
253
587
684
486
544
421
379
670
582
614
700
667
419
476
530
495
529
516
576
460
409
507
631
511
406
531
586
564
494
488
497
518
520
233
616
539
579
490
504
484
675
411
493
491
637
583
434
468
690
467
490
517
516
588
515
488
438
630
598
475
597
561
457
657
457
447
621
596
443
448
656
489
463
512
668
688
621
596
416
855
657
472
534
637
445
439
392
562
595
498
524
524
575
443
648
384
657
681
327
533
549
660
434
494
506
630
445
487
634
584
526
474
492
500
594
399
704
435
585
561
615
389
610
511
504
434
525
553
689
495
467
658
504
459
491
547
507
510
636
465
634
439
494
529
748
434
503
497
587
615
451
526
550
540
356
542
487
560
255
158
659
378
502
479
697
349
550
368
819
476
403
698
792
485
743
447
522
567
289
636
0
474
650
275
628
514
451
886
313
370
570
521
830
228
604
636
546
534
442
462
600
672
454
644
407
622
0
676
34
894
455
468
382
634
499
510
443
375
772
589
526
678
660
491
586
494
550
530
456
468
551
652
443
462
436
604
553
484
465
618
655
332
510
538
564
483
476
506
596
529
508
420
547
619
494
427
582
579
453
542
428
588
555
462
460
579
516
466
541
576
480
507
693
446
616
493
543
549
467
561
480
506
530
577
485
481
503
623
507
497
494
543
605
406
513
617
599
489
531
500
605
492
452
695
592
542
472
570
478
603
490
461
498
588
584
472
511
648
495
415
596
496
624
504
499
519
574
626
461
474
618
567
456
498
481
614
565
445
452
657
562
474
466
489
744
447
443
620
675
493
479
490
583
468
520
546
549
605
457
558
467
609
497
474
558
586
452
404
550
634
599
448
457
569
523
391
551
581
547
490
540
517
514
501
501
507
503
696
474
463
512
717
460
457
520
660
598
405
449
448
636
593
441
511
647
610
476
372
765
556
452
539
495
623
482
478
444
577
675
437
586
621
608
419
436
506
657
509
549
564
593
506
460
481
634
577
474
509
498
570
487
504
458
666
552
410
539
535
557
422
507
534
605
501
477
528
562
504
432
520
588
529
571
465
518
663
498
478
507
598
491
413
579
542
614
474
516
484
539
539
489
528
603
558
463
485
532
633
451
448
489
815
478
493
533
539
536
464
462
586
631
471
534
459
576
520
498
506
542
486
514
590
536
601
476
518
474
589
595
445
524
594
499
517
483
522
648
489
503
475
580
463
539
496
541
556
515
446
489
718
478
455
528
607
510
429
571
609
519
479
490
530
597
508
464
480
652
493
423
556
579
651
459
466
583
587
431
479
409
541
96
447
252
671
468
699
527
818
638
440
523
497
642
647
472
480
657
581
371
492
519
590
504
527
466
678
613
435
469
590
696
407
496
506
570
419
491
510
604
541
473
522
501
619
454
505
514
667
449
496
535
575
548
487
501
564
533
445
496
492
619
469
590
556
541
492
494
500
469
658
545
481
508
572
531
477
525
577
503
539
524
525
563
458
470
468
586
400
551
483
623
533
494
508
499
557
522
484
526
686
438
434
568
535
516
448
596
543
570
467
504
487
579
458
465
623
530
527
420
556
519
500
519
557
488
603
449
428
550
647
538
481
508
432
617
490
690
543
594
518
434
478
652
507
472
572
606
558
486
498
517
596
422
533
473
572
667
545
547
647
518
393
444
478
636
562
477
474
557
635
338
530
721
628
612
539
510
547
528
0
497
540
1023
624
629
668
756
411
428
467
566
390
541
499
446
667
505
562
464
550
419
483
538
556
660
458
548
555
620
443
554
525
112
492
415
477
643
576
481
532
498
597
593
494
547
601
476
486
418
551
564
484
504
568
605
473
527
527
526
492
490
493
540
510
520
482
531
736
416
528
551
588
496
451
635
640
494
492
487
503
652
421
464
550
615
559
380
533
576
493
510
436
518
725
506
498
503
569
509
407
502
616
490
477
523
544
562
475
559
514
652
423
553
503
532
536
527
485
1023
527
758
139
366
699
468
701
155
1015
422
402
512
540
546
485
623
502
696
516
465
541
735
480
549
672
496
713
420
497
322
366
475
280
464
637
434
487
708
573
478
513
612
576
639
573
479
432
111
511
472
615
120
731
666
588
643
507
701
521
284
662
530
459
500
556
505
247
494
494
664
503
435
446
557
146
572
800
538
530
419
497
462
699
483
516
512
524
550
400
531
574
525
436
537
448
640
567
457
542
549
448
492
518
526
609
513
482
536
600
419
486
612
560
550
472
480
509
603
502
486
435
358
474
617
509
449
588
0
690
561
657
517
664
545
556
535
560
501
599
583
400
605
644
565
533
507
112
944
417
490
731
586
597
426
401
562
662
480
529
467
569
543
474
613
606
473
465
588
487
713
536
443
508
568
518
472
533
652
472
454
529
547
646
449
508
488
615
531
489
477
556
646
418
478
559
573
494
533
478
547
543
499
533
490
589
2
536
606
596
699
552
637
541
507
413
1
719
662
452
368
465
700
480
536
698
227
528
369
443
544
553
530
537
428
558
563
528
457
577
544
488
490
546
560
468
550
795
582
463
507
503
660
618
609
434
754
633
313
482
545
470
946
867
748
783
515
582
697
419
533
9
141
587
26
659
500
20
631
495
482
509
511
556
642
311
512
9
607
610
649
697
585
661
538
549
600
473
870
496
763
510
496
636
594
479
445
543
483
1023
516
645
650
780
491
532
552
675
461
393
658
527
593
490
235
491
10
827
389
848
166
750
532
537
605
501
537
446
521
624
481
492
532
567
508
369
1023
561
287
671
622
686
598
464
475
581
656
516
576
530
508
646
539
472
468
605
499
441
570
505
639
468
647
563
595
488
508
501
604
506
478
464
595
610
474
425
595
675
492
494
461
711
471
511
498
584
569
466
482
536
608
487
538
452
600
567
497
498
614
537
430
660
470
655
533
660
489
611
562
733
512
604
543
469
490
549
705
480
364
518
0
611
486
494
95
852
441
484
522
610
472
453
498
530
595
479
481
590
614
469
414
659
579
504
517
685
555
506
454
568
623
564
481
512
489
588
524
504
502
580
480
502
553
507
641
424
514
489
621
461
515
508
490
580
535
499
624
615
549
463
625
619
627
574
950
628
497
633
494
513
699
2
514
472
689
423
236
710
505
501
569
511
474
603
339
550
530
630
561
483
516
606
529
436
530
538
572
461
484
516
503
608
543
494
613
519
465
468
81
626
450
504
514
589
509
506
497
538
576
396
544
567
537
467
511
455
567
542
465
487
643
461
557
489
428
698
479
505
500
620
469
460
506
523
480
486
633
525
585
464
496
511
603
463
473
473
700
491
425
525
553
619
365
447
564
646
454
504
520
570
541
483
519
555
560
461
497
441
643
538
264
520
44
645
297
832
583
611
644
562
481
577
550
463
616
597
615
488
207
629
500
562
506
625
603
480
506
485
524
546
502
577
322
657
535
521
36
664
255
751
538
632
543
490
486
586
629
439
531
480
548
525
435
584
617
512
509
463
513
672
473
478
582
556
531
507
596
595
555
526
511
570
510
439
531
492
596
553
459
541
667
499
432
662
484
546
524
476
447
595
507
464
540
554
589
508
518
508
616
478
445
492
627
501
489
472
561
569
473
481
550
613
482
461
477
604
550
461
510
573
585
479
515
573
575
499
519
477
545
415
456
668
487
543
516
532
471
622
442
478
498
589
578
448
499
548
544
454
533
499
598
386
648
481
548
516
481
515
576
482
510
542
537
621
567
476
592
597
440
395
646
603
740
610
301
561
479
473
640
615
642
522
476
495
535
604
461
529
446
490
504
661
475
541
549
535
488
209
777
452
147
636
666
501
573
543
510
484
454
493
589
679
441
254
518
203
543
502
505
593
707
383
497
637
562
482
400
581
538
574
553
40
746
472
548
563
609
588
455
458
85
698
606
504
286
558
618
594
459
548
642
476
499
409
567
539
499
577
542
532
473
625
509
614
488
430
492
668
573
475
550
627
493
428
522
502
602
483
469
537
545
542
468
540
550
568
472
496
569
542
470
513
535
534
541
560
483
515
589
410
528
513
583
502
479
511
551
535
482
508
530
570
481
504
554
608
465
516
536
536
489
466
577
576
545
496
472
499
649
463
442
474
769
463
534
496
587
569
444
496
502
625
487
477
236
563
465
437
588
662
467
496
630
466
596
497
496
457
560
501
483
488
592
589
448
506
512
610
472
488
498
600
506
460
583
552
509
535
600
319
635
544
445
503
567
511
442
479
592
552
525
500
502
506
486
547
480
617
566
491
499
543
486
512
470
535
629
463
452
479
657
522
456
554
484
624
463
440
499
633
572
490
505
626
603
481
618
588
243
1007
507
544
698
614
498
447
491
516
449
541
579
562
470
516
481
574
466
502
367
620
539
466
509
525
619
399
466
524
638
462
507
537
587
645
452
736
640
697
511
662
505
570
353
516
697
549
698
484
695
532
427
519
699
588
593
506
531
470
566
558
625
493
524
602
407
547
505
533
511
500
496
578
499
448
592
510
587
447
480
559
636
735
689
546
326
683
213
92
610
669
635
554
558
624
526
449
447
0
700
492
1
493
1023
575
65
791
332
662
410
496
532
557
485
519
506
597
478
482
483
602
528
461
80
528
550
462
574
565
544
486
524
447
593
513
506
509
530
558
501
473
575
566
491
499
440
577
582
456
474
565
573
447
468
528
569
452
522
520
573
480
522
477
553
570
656
432
524
695
457
504
506
626
436
530
510
504
542
507
494
466
615
498
471
492
577
495
456
499
582
602
401
490
571
661
372
475
624
541
487
446
572
490
616
483
482
485
560
502
410
565
691
469
473
530
621
486
476
561
434
651
537
457
493
589
495
434
476
551
560
520
481
556
744
563
503
366
792
299
356
892
485
878
521
260
675
536
120
675
81
697
496
470
539
580
610
343
547
530
531
451
554
561
499
535
435
538
601
893
504
499
550
692
433
558
164
554
571
503
506
540
646
487
433
469
532
562
460
485
589
627
424
497
655
535
464
512
485
494
561
506
477
650
594
486
404
522
586
468
516
500
570
533
456
541
622
534
450
528
503
567
467
485
460
662
490
469
550
569
495
456
225
546
609
454
459
531
569
512
472
491
549
549
421
518
531
638
512
462
490
581
501
498
510
533
555
434
531
542
602
496
397
584
633
513
436
537
534
606
387
533
509
606
458
536
487
553
511
545
491
541
549
513
467
495
581
495
555
606
555
494
446
519
506
628
488
470
518
584
521
494
556
607
541
466
490
519
544
455
531
510
539
533
591
497
695
503
430
644
549
591
442
488
480
603
493
485
514
516
530
528
485
572
611
454
494
497
600
485
490
556
565
507
484
484
525
611
454
458
504
626
478
458
515
560
538
449
512
631
524
449
515
492
590
422
478
501
681
695
465
651
694
253
993
271
796
813
853
496
581
662
370
384
425
498
612
526
586
486
600
430
529
547
1023
318
769
160
512
442
414
396
531
699
698
486
332
645
357
378
417
490
526
503
530
488
593
545
570
486
619
640
428
429
561
605
252
599
499
1023
243
966
592
1023
456
307
465
678
562
569
243
527
502
531
403
602
619
592
440
501
465
529
471
590
475
476
363
85
615
678
641
803
510
432
526
501
531
466
534
424
501
718
551
212
583
107
492
559
530
478
653
625
705
410
430
552
595
483
493
500
536
481
489
489
608
495
424
467
634
588
444
507
646
666
634
422
216
693
457
410
551
578
639
940
539
357
697
572
405
533
562
518
439
494
639
108
448
156
469
611
441
398
639
551
516
722
505
520
821
457
576
587
182
475
0
567
588
488
617
518
500
555
508
499
510
596
407
448
770
586
685
574
512
536
549
543
545
498
584
530
497
504
536
495
463
532
583
606
441
471
477
698
393
498
494
610
628
415
549
570
591
486
487
451
553
481
545
538
616
550
473
515
519
520
563
501
449
697
477
428
509
549
514
471
491
523
598
416
527
480
568
526
485
489
590
542
406
475
562
638
441
583
470
575
498
488
474
554
617
488
442
544
593
458
494
479
591
538
0
531
544
576
534
494
530
635
461
440
495
595
507
505
494
577
527
535
539
531
618
417
515
501
545
481
630
523
626
546
391
509
419
420
427
622
94
774
483
482
460
567
743
420
491
497
283
528
87
458
1023
481
451
698
199
661
416
482
450
439
399
663
534
542
837
580
442
631
555
345
471
394
603
623
456
556
715
469
460
451
527
62
507
541
651
1023
505
700
594
267
551
79
604
567
857
446
615
784
647
435
309
603
516
476
187
514
507
547
433
630
491
601
462
479
483
598
487
512
462
538
575
339
677
733
778
788
516
485
572
479
456
516
536
547
412
472
484
241
601
4
434
571
633
389
739
775
862
461
594
440
322
1023
655
525
646
506
548
554
460
586
470
619
477
565
518
84
604
588
33
519
737
593
586
488
471
505
557
476
475
584
522
500
473
488
635
530
36
555
11
548
52
503
515
628
536
507
495
665
561
0
499
516
1023
517
569
578
611
473
32
413
655
617
447
549
424
497
545
493
537
546
564
469
460
542
559
492
498
500
573
575
479
490
588
663
480
501
472
739
328
488
629
509
538
485
455
536
529
444
503
504
663
491
560
446
618
501
502
431
589
663
367
512
544
573
488
435
465
598
508
514
496
551
581
462
502
478
559
506
480
518
632
453
488
560
553
550
471
501
488
542
498
459
538
521
605
447
479
576
641
365
434
586
586
443
497
519
570
466
496
475
589
609
382
587
474
502
471
504
553
623
466
472
499
591
545
417
513
456
539
579
493
475
485
739
524
394
552
637
520
466
452
628
0
582
0
824
0
430
524
459
1023
535
691
569
940
264
606
595
641
32
496
357
443
521
517
593
792
648
998
741
504
698
500
468
640
634
134
716
699
831
650
643
501
462
471
580
413
464
538
603
481
467
487
584
479
452
633
572
498
531
512
508
582
401
456
479
516
625
473
502
512
548
406
510
552
607
0
481
620
486
570
518
479
589
500
432
511
538
583
424
467
514
566
530
455
498
582
544
412
479
608
647
448
468
484
545
509
452
485
634
527
457
503
554
519
421
610
454
578
558
480
499
503
534
527
499
553
603
437
529
555
594
518
481
510
518
567
442
503
540
601
476
465
469
599
531
450
514
524
611
468
405
561
699
388
468
499
643
469
488
186
738
108
644
475
657
653
514
475
578
613
4
511
0
604
344
688
606
476
668
331
479
453
562
485
456
508
616
538
466
421
522
623
505
540
512
568
698
451
544
710
644
477
510
457
672
465
493
545
554
548
505
511
542
485
357
609
470
570
515
504
505
646
524
487
517
583
619
444
418
475
622
451
516
486
635
552
458
497
543
560
424
497
589
634
508
515
554
530
500
427
543
546
599
468
497
470
609
479
524
457
617
505
394
556
493
586
550
441
544
642
548
444
545
572
524
481
472
474
646
487
504
501
590
527
330
532
649
509
451
552
548
539
459
471
468
638
527
453
520
633
488
438
504
561
620
529
468
473
561
532
477
483
577
539
465
496
506
621
468
468
505
587
528
464
525
665
642
345
519
613
576
467
464
509
599
484
444
525
486
677
476
464
563
572
521
452
440
568
512
486
491
599
573
433
575
495
587
446
473
580
579
503
474
564
539
541
434
486
503
630
497
493
471
575
529
528
481
488
675
531
460
695
608
559
522
493
490
611
613
630
562
700
610
550
441
490
196
551
540
646
556
507
425
698
1012
560
636
920
653
431
589
475
587
671
491
567
563
36
643
0
293
596
615
435
664
1023
622
478
598
517
457
453
736
394
749
742
529
429
493
691
471
716
640
896
506
624
518
568
312
451
633
154
642
448
498
513
637
365
433
456
545
260
409
626
457
488
679
654
507
555
456
389
491
664
522
501
529
555
505
430
508
637
558
489
491
416
527
553
520
547
494
396
12
952
493
634
660
567
645
495
131
708
535
460
555
386
437
858
727
666
643
309
533
67
610
561
776
551
535
515
539
570
516
450
459
626
508
424
528
583
531
480
529
550
77
545
497
514
624
576
483
495
530
531
452
514
507
543
488
547
492
642
473
502
601
510
556
439
538
344
293
751
507
413
699
414
514
410
581
508
611
697
377
596
553
527
649
743
698
475
388
699
523
509
515
531
611
463
445
487
564
547
445
499
638
498
480
498
461
607
456
414
654
555
505
552
496
543
543
450
486
465
682
468
424
508
593
553
472
506
540
633
451
506
483
563
351
601
610
529
570
492
446
529
533
429
511
548
599
471
492
536
597
526
473
501
584
554
435
530
517
564
529
560
495
539
516
454
531
346
367
932
418
620
881
642
460
320
517
210
524
534
471
648
495
454
426
577
514
512
453
610
505
466
534
543
463
564
437
510
668
481
448
513
531
588
476
503
556
452
445
485
504
562
563
442
506
610
504
438
505
577
591
513
482
488
584
480
477
596
548
535
480
429
550
605
484
514
493
17
529
0
598
661
532
492
684
535
698
660
595
607
593
522
503
315
627
596
474
524
621
503
389
489
490
597
510
404
566
619
522
459
532
503
583
470
473
552
558
480
536
321
564
352
501
573
497
653
460
465
583
550
513
548
509
555
609
437
494
782
627
135
429
88
785
655
594
617
557
600
349
454
489
0
533
478
561
551
535
482
498
516
590
412
482
632
536
467
485
520
620
474
457
514
611
627
448
511
501
631
477
447
498
554
504
600
478
530
621
430
477
503
633
369
638
500
532
542
451
520
503
557
476
496
465
686
474
463
492
567
498
496
449
623
544
409
557
583
554
461
536
465
719
469
425
509
603
553
435
486
520
578
513
458
537
530
492
486
547
537
556
506
528
399
612
527
483
485
515
504
509
519
508
600
451
482
538
0
488
510
542
561
504
447
475
487
687
452
417
482
678
566
500
471
565
612
452
409
615
581
452
482
510
545
522
508
588
499
484
545
459
565
523
473
537
480
595
530
481
531
501
513
462
519
521
552
491
563
429
559
489
516
508
508
610
462
582
533
553
481
501
477
603
541
527
529
538
532
404
463
595
566
448
495
511
548
582
281
486
43
619
0
464
518
890
177
455
464
664
491
422
505
552
646
420
469
485
670
491
411
513
204
497
605
468
540
680
463
456
458
621
471
509
167
360
282
548
575
0
664
429
441
581
617
422
583
668
516
518
434
460
634
592
496
698
532
417
536
109
660
586
552
498
569
490
590
466
296
569
443
485
500
625
625
601
482
521
509
672
454
492
509
602
488
512
543
601
537
479
507
513
653
476
427
441
892
389
478
615
516
540
454
480
550
606
465
489
476
609
476
595
537
496
663
388
473
465
644
440
460
484
641
462
441
546
593
519
508
554
515
529
476
528
445
559
506
547
430
637
482
443
486
572
594
474
499
450
607
462
486
435
629
576
476
530
539
559
433
295
469
434
632
463
635
646
463
437
702
231
864
617
704
488
760
518
614
594
597
510
389
475
0
615
288
507
488
618
533
514
480
547
564
455
483
497
574
494
463
505
603
590
552
484
516
565
533
490
548
558
485
539
466
531
504
479
520
555
616
499
488
448
618
604
460
445
621
639
488
461
346
624
566
468
517
744
434
501
595
486
476
461
601
578
672
467
483
9
1023
0
602
544
660
643
503
1
713
672
531
596
581
693
461
195
454
496
688
339
668
756
605
333
441
458
697
466
481
530
553
453
465
536
493
652
481
472
480
505
577
501
499
622
535
503
488
490
671
421
504
487
708
391
487
531
608
505
487
416
561
611
455
514
480
635
456
463
540
625
535
453
496
486
531
538
410
445
799
518
439
489
562
498
489
528
402
629
490
485
499
538
474
556
535
561
551
454
478
571
654
474
486
504
591
396
536
501
525
584
457
489
488
620
473
484
522
605
468
507
471
521
492
523
510
542
610
491
469
474
623
472
509
528
544
541
554
477
546
630
470
464
462
587
472
344
569
721
530
488
595
499
547
411
420
483
667
551
463
508
582
508
427
491
508
635
492
483
481
543
514
501
480
613
572
450
498
489
546
469
643
487
602
549
450
494
540
548
502
530
528
600
447
480
460
562
557
482
478
614
531
436
511
541
640
498
378
512
695
546
481
559
601
513
423
450
539
623
477
480
508
571
506
450
571
615
553
463
497
543
610
457
424
486
674
426
469
671
508
541
514
485
505
571
409
574
488
556
554
470
482
548
590
477
513
523
608
473
509
467
575
518
530
477
579
570
463
509
560
632
585
513
205
547
471
166
496
621
675
533
475
463
625
537
493
540
568
583
713
684
548
499
381
421
167
605
490
517
533
604
490
418
463
617
609
477
244
536
558
436
561
457
732
513
649
427
657
518
448
495
656
536
359
486
0
619
190
474
492
632
616
453
480
469
524
496
706
502
565
558
345
530
590
605
463
760
601
555
493
473
522
558
527
473
495
629
525
499
525
486
614
445
520
520
591
486
479
525
506
568
399
487
547
648
478
498
510
589
518
590
594
335
622
536
536
483
622
515
464
450
763
533
267
520
648
723
423
509
254
652
450
502
551
557
538
470
527
520
550
513
510
455
676
505
466
504
521
483
510
555
548
597
456
479
568
563
494
502
505
536
518
397
526
605
599
432
494
475
558
468
514
514
573
505
478
472
506
622
461
499
486
609
474
453
555
563
641
414
480
613
591
410
575
532
624
638
477
390
676
546
625
503
553
592
507
484
470
591
464
460
518
650
521
469
544
471
544
463
514
499
611
489
450
494
656
529
325
504
570
806
450
466
304
612
534
490
412
603
586
366
636
501
600
483
492
458
553
525
477
524
591
559
399
444
593
699
490
495
499
583
429
428
0
649
210
556
307
574
555
534
528
544
564
334
413
563
485
621
617
530
564
480
494
104
620
517
605
497
518
622
471
440
556
495
602
517
490
465
400
438
458
19
698
487
503
609
489
603
450
474
471
581
514
508
482
612
553
440
581
256
653
538
558
494
539
450
470
530
767
479
487
500
536
545
440
524
393
598
500
484
495
552
588
528
506
505
624
478
528
417
646
483
461
511
568
551
458
479
525
579
514
444
521
605
504
504
497
562
586
472
472
559
601
494
479
498
555
509
451
514
569
514
651
517
687
699
151
556
598
609
654
453
446
539
431
748
575
752
755
571
442
404
548
489
460
483
621
494
442
534
504
649
449
501
461
643
447
515
534
558
602
429
543
510
574
449
556
499
556
757
450
498
646
572
390
514
555
601
467
487
273
580
482
508
504
528
580
485
424
479
678
479
468
500
626
489
478
596
522
662
441
486
544
557
483
501
525
603
508
445
519
572
542
480
519
446
611
487
543
551
562
550
572
472
507
555
462
523
521
622
467
479
485
612
528
396
559
583
546
466
581
462
696
543
612
549
69
654
682
605
570
698
329
481
440
591
478
544
504
535
500
502
487
491
700
429
497
493
621
492
459
471
595
517
630
353
697
826
256
632
594
693
0
583
195
695
782
532
654
563
563
260
596
503
613
490
85
612
156
597
519
510
593
546
414
355
565
528
510
505
516
538
528
372
512
626
529
453
575
496
544
496
462
454
638
512
544
562
619
491
450
400
669
470
400
781
783
453
578
511
405
412
636
400
540
570
567
413
489
511
608
606
369
614
569
476
514
516
476
593
419
497
476
604
543
463
532
489
672
501
418
597
652
483
488
514
673
537
386
447
580
571
446
486
476
518
530
489
0
732
493
514
471
592
603
487
450
466
577
554
457
494
569
550
471
496
540
519
447
613
511
596
464
475
592
549
528
491
517
527
525
450
495
489
636
554
435
487
606
513
537
531
576
602
488
451
489
522
540
461
500
595
534
357
541
526
708
409
538
547
509
464
496
487
617
527
486
475
611
546
487
450
538
491
551
602
534
459
612
524
489
499
741
458
483
503
632
491
427
494
547
553
492
534
502
637
458
469
458
546
610
449
588
597
517
454
515
464
600
483
335
540
727
473
503
530
605
491
425
458
558
608
507
463
521
540
479
513
528
605
569
537
533
485
564
448
438
521
609
480
350
681
524
528
497
501
459
643
509
446
479
646
548
430
489
553
537
497
453
534
614
472
470
450
607
565
499
542
488
515
658
0
1023
0
839
623
815
712
520
508
486
526
549
457
521
496
604
431
365
535
661
513
502
543
472
573
506
463
590
580
419
509
464
569
589
453
490
566
646
490
505
593
514
535
504
481
540
569
413
506
523
625
505
477
472
618
527
499
478
560
541
468
507
589
549
578
472
512
609
450
504
506
538
483
521
487
582
598
713
413
508
556
540
472
477
582
534
478
458
613
533
457
481
486
743
392
490
480
561
481
520
438
655
592
456
500
483
564
469
505
497
592
490
496
460
585
530
514
541
475
611
473
469
476
575
508
475
503
624
540
451
464
557
605
442
494
562
558
535
523
442
679
533
456
507
513
502
474
477
463
606
622
395
566
512
612
504
446
520
610
477
395
484
544
530
526
500
589
624
433
509
491
597
498
496
532
677
495
492
523
495
564
454
501
483
613
475
506
482
622
472
452
494
557
660
467
528
464
563
550
393
563
585
573
426
514
543
515
469
546
524
590
503
565
451
593
508
487
471
583
643
405
525
535
577
485
517
430
627
589
474
550
579
538
441
604
461
593
450
504
538
514
508
475
369
198
491
523
500
472
682
432
559
596
524
510
562
500
545
501
337
773
643
691
658
425
545
462
441
453
548
611
606
443
466
507
622
551
506
455
635
563
433
459
553
647
656
526
456
587
515
481
482
586
511
400
522
661
549
486
527
492
538
510
481
498
581
539
487
533
516
597
468
464
525
609
415
561
553
540
594
341
495
632
505
495
558
498
715
459
431
534
649
494
483
477
586
579
422
514
502
550
453
552
435
654
551
480
511
492
556
434
508
497
697
485
501
538
522
517
437
540
650
548
468
505
547
550
463
481
541
610
511
545
449
603
538
484
505
483
611
426
563
489
546
547
469
538
519
348
654
0
579
1
641
675
2
592
1023
728
474
640
498
499
0
461
219
573
563
568
602
551
407
469
517
606
502
526
415
622
530
456
65
706
497
531
578
532
609
448
557
511
591
501
572
526
670
534
89
520
391
648
523
673
460
578
476
416
470
563
661
408
172
592
632
396
499
544
611
500
446
450
696
466
513
530
539
593
453
471
440
605
505
516
493
544
577
478
448
537
507
486
575
470
700
418
527
509
582
487
457
536
551
549
618
523
539
560
499
512
523
555
592
380
553
564
530
456
559
426
562
550
478
477
588
496
457
573
547
601
462
491
493
497
470
544
511
598
542
449
537
535
553
406
550
497
587
553
405
579
519
501
450
510
507
599
415
472
546
617
527
481
509
569
503
447
467
514
550
639
492
451
607
408
510
485
602
498
509
538
489
553
461
477
462
658
538
164
160
794
504
331
776
800
530
474
0
640
35
667
498
280
716
609
512
452
466
374
561
0
452
675
511
514
641
697
515
402
449
410
634
489
517
473
536
438
571
473
608
692
479
509
507
561
460
510
509
615
487
503
456
581
525
453
498
520
579
463
540
509
578
468
468
525
509
577
463
518
595
508
534
484
475
571
598
494
495
558
497
471
248
586
560
493
496
528
560
477
465
485
554
622
440
476
624
392
492
0
521
48
770
265
665
556
356
505
539
551
462
1023
256
638
342
675
592
533
529
498
374
540
540
532
676
460
466
575
542
490
612
501
499
504
501
597
505
406
524
523
582
486
484
410
584
718
472
509
535
648
373
443
594
551
529
489
519
572
469
450
575
533
604
403
581
476
645
501
516
500
584
514
456
519
526
602
506
434
478
564
566
394
532
661
433
521
447
537
574
433
512
486
575
489
533
493
560
538
449
501
618
542
442
526
583
499
477
584
480
607
524
389
558
605
540
516
539
504
503
484
453
527
707
493
608
582
19
521
472
512
512
654
574
564
498
534
699
453
494
596
651
445
462
517
606
488
505
495
523
645
544
516
563
543
442
477
457
482
563
636
497
559
704
508
564
534
517
544
367
459
698
509
545
507
526
512
474
642
468
148
517
0
457
535
461
479
537
684
598
462
556
917
644
632
814
603
672
137
628
503
681
600
515
610
448
552
376
527
539
572
492
93
528
578
604
78
772
512
393
522
0
594
19
763
430
816
643
431
451
565
491
518
661
0
642
467
479
534
465
719
563
553
504
247
668
0
516
472
601
477
503
519
519
598
585
542
498
503
1023
303
510
575
554
629
545
553
771
436
510
548
600
445
593
490
666
509
540
477
543
568
493
425
510
718
396
453
522
540
492
502
347
554
594
359
517
601
622
450
491
498
536
460
514
586
549
544
527
515
478
666
412
460
519
602
476
544
599
489
553
452
558
484
595
382
562
494
614
528
458
500
519
506
456
607
494
582
555
427
450
579
495
511
491
590
533
460
553
455
653
486
497
503
533
492
429
525
832
262
800
593
525
501
546
459
441
738
486
442
435
621
512
565
584
495
569
539
473
470
571
510
585
432
643
563
555
491
570
637
455
522
563
697
676
497
194
645
561
573
391
547
643
454
436
587
508
491
511
509
507
571
451
475
566
609
446
450
481
649
464
372
476
600
594
69
644
61
684
0
828
554
496
560
529
528
658
601
35
886
0
508
1023
564
664
726
510
436
459
562
546
490
483
531
434
490
621
415
609
556
457
407
615
611
488
529
634
325
679
0
485
13
627
463
642
630
569
443
564
525
587
443
497
631
675
376
470
614
530
477
381
493
1017
1023
662
586
543
608
173
375
761
618
629
586
188
529
503
400
511
542
594
354
462
463
599
649
341
680
68
155
482
497
555
583
281
431
673
700
984
560
664
549
372
409
268
476
1023
340
648
531
618
393
677
649
635
613
732
63
469
821
68
586
698
767
590
441
632
545
461
400
334
448
698
495
600
658
753
935
542
588
541
475
499
337
620
420
557
493
374
488
571
609
513
607
600
491
457
481
547
559
462
586
543
571
421
515
520
582
485
479
472
569
471
487
675
590
487
475
545
482
570
492
499
484
624
1014
69
703
396
803
484
426
525
293
213
363
721
831
426
456
684
716
489
509
534
521
589
596
85
611
574
476
488
584
851
602
303
461
465
594
502
624
661
599
519
465
511
422
459
436
1007
536
743
518
532
477
600
445
480
507
607
566
494
487
492
487
1023
45
698
633
613
576
487
500
459
382
647
529
477
419
229
544
580
626
550
699
619
642
517
422
546
526
405
535
497
513
441
493
507
494
500
490
319
700
591
522
0
592
259
577
560
567
521
484
547
541
526
640
555
372
453
559
491
290
516
532
540
518
490
539
583
483
526
548
698
766
448
205
732
490
463
549
580
506
495
546
487
561
494
526
459
611
334
212
674
485
533
545
0
435
244
504
530
481
515
439
685
580
803
698
477
296
407
581
471
608
522
567
498
379
446
264
713
530
74
608
306
595
480
426
619
700
539
345
651
582
459
474
478
576
414
575
480
698
494
671
447
699
453
456
1
332
628
459
482
548
837
566
447
554
503
542
511
484
527
568
684
551
490
678
526
384
648
472
395
358
426
458
561
564
551
1023
755
693
511
530
446
373
604
0
589
217
723
489
490
572
529
540
417
559
523
534
549
489
582
390
361
1023
109
846
323
110
652
405
439
0
736
598
457
509
514
608
463
485
589
509
162
517
468
410
624
601
604
1023
754
587
543
539
487
587
409
452
503
654
546
429
449
498
508
790
373
370
543
633
0
334
906
313
779
645
671
568
447
325
545
637
503
472
528
578
416
148
511
538
564
479
486
526
555
499
483
501
660
472
500
437
527
603
452
500
578
532
473
488
400
694
477
498
486
588
509
445
629
526
591
475
453
467
628
484
491
518
592
660
496
479
553
604
598
423
433
755
451
425
548
628
497
492
483
552
587
431
504
515
537
535
531
508
666
473
517
517
652
569
484
544
472
539
454
481
529
595
536
493
514
518
606
448
533
492
574
462
532
452
684
469
484
508
554
615
432
477
597
621
713
105
147
539
904
714
735
23
645
501
364
381
604
977
310
730
696
620
0
354
727
630
851
644
540
587
433
400
478
600
515
460
474
664
561
484
495
421
538
494
510
519
630
626
463
502
493
596
444
604
519
572
492
487
522
540
501
454
622
529
529
479
570
419
564
564
487
476
622
498
457
506
510
647
450
524
451
567
623
452
507
535
590
470
506
553
561
577
493
450
582
467
444
507
615
469
511
491
521
652
429
490
525
563
457
68
517
618
525
487
501
560
333
445
473
639
620
403
443
531
512
693
864
710
653
699
504
463
522
663
449
426
465
553
515
459
538
558
618
398
564
428
646
397
468
530
805
696
17
763
487
100
583
607
504
670
343
509
454
429
508
853
237
697
740
644
383
413
700
398
500
489
535
594
464
420
631
599
443
491
444
636
354
622
510
498
642
486
320
632
623
493
483
469
571
1023
720
685
682
608
455
345
477
528
0
612
617
600
138
449
696
556
639
665
575
522
476
414
461
488
652
433
457
457
610
476
477
489
498
638
755
478
493
670
475
483
479
609
488
513
591
559
570
453
452
469
651
475
474
554
628
538
468
495
603
514
466
507
545
670
432
490
490
593
462
498
575
498
609
423
516
469
708
482
521
463
499
616
471
475
534
588
488
454
479
599
493
482
476
671
491
493
468
580
539
429
455
555
607
492
540
481
555
482
470
505
659
571
421
510
657
495
535
512
470
582
530
441
487
589
113
531
0
605
143
433
499
626
1023
740
871
691
573
433
1023
654
566
777
547
510
454
466
477
496
488
576
598
435
450
494
639
435
478
500
660
696
459
514
827
595
781
493
698
640
660
537
0
651
0
604
529
559
0
541
0
510
446
651
502
628
676
605
563
454
540
666
402
490
497
521
464
512
451
609
465
490
290
608
553
447
586
561
538
396
477
552
620
520
532
492
507
619
398
466
593
697
424
483
406
634
527
525
489
539
686
422
403
517
698
410
588
423
706
652
777
531
136
556
791
0
446
554
466
1023
628
1023
698
102
480
0
487
148
588
426
478
468
608
472
737
517
468
489
567
567
574
0
700
632
485
619
345
844
600
41
592
0
480
467
531
498
629
576
521
478
688
497
475
506
543
703
414
404
502
585
427
431
490
598
596
514
512
689
491
441
502
484
675
446
563
470
557
535
499
475
612
588
508
533
513
603
440
483
462
605
526
477
512
532
630
351
507
637
527
502
477
442
716
469
481
489
515
544
619
419
504
691
448
516
384
580
484
513
407
664
653
507
551
531
540
444
510
596
469
645
427
464
574
424
489
505
499
572
560
464
460
590
504
438
513
521
542
536
458
465
546
517
310
540
691
461
494
600
527
470
460
580
514
571
476
481
459
653
453
587
504
543
467
460
605
649
550
473
468
435
685
443
489
488
613
484
355
508
614
591
412
529
458
639
562
523
467
494
589
505
537
541
588
488
534
490
569
526
478
469
509
596
518
476
535
649
582
474
486
627
527
395
482
614
499
463
547
502
622
417
492
504
622
492
642
450
612
687
468
646
449
570
470
531
446
687
497
441
444
610
513
447
581
547
574
576
452
456
625
502
474
531
531
557
461
477
508
553
401
581
517
623
463
546
516
533
527
469
535
609
538
497
541
484
617
600
427
462
653
527
342
615
692
486
513
572
434
584
464
461
527
561
570
486
490
549
526
531
483
480
665
487
480
556
569
549
477
447
546
514
482
529
481
668
501
435
505
576
500
463
501
557
601
513
498
459
675
529
444
433
583
575
442
472
697
639
361
589
373
533
525
382
489
686
492
493
589
516
586
487
551
495
593
419
502
570
630
562
454
515
527
503
455
495
528
605
470
558
449
574
518
456
489
471
495
550
453
558
591
394
552
537
529
463
433
454
720
516
449
561
539
561
442
466
498
587
510
383
498
571
612
468
484
436
531
500
480
472
587
575
461
520
573
550
471
477
629
578
402
491
468
698
535
472
517
589
587
261
624
583
589
471
476
472
542
671
415
537
620
564
373
506
515
621
508
504
482
560
530
447
526
598
478
488
614
397
723
504
479
487
574
488
437
520
519
555
517
555
527
622
476
516
502
562
533
470
519
554
487
492
543
495
634
440
543
457
550
537
507
510
515
516
498
558
530
655
510
500
433
576
553
462
604
525
563
504
487
486
538
488
539
550
548
659
441
513
575
546
477
447
612
603
527
443
470
587
490
400
590
519
561
485
457
559
556
568
503
432
740
353
483
564
510
570
515
467
549
591
413
541
445
618
491
492
471
554
543
448
439
577
613
434
583
480
623
568
512
445
445
582
556
438
537
730
504
452
363
606
607
547
483
574
516
413
430
498
582
481
462
520
639
569
463
530
586
497
452
498
558
643
478
533
425
598
482
565
358
660
658
421
454
597
576
568
457
478
699
510
439
416
552
569
492
473
526
599
442
492
419
593
533
497
487
615
558
459
469
594
562
532
437
491
584
485
482
532
490
535
571
477
501
591
471
540
464
535
568
398
566
472
542
551
468
485
580
501
450
460
687
469
503
502
608
549
424
509
539
552
431
580
461
617
509
547
455
651
488
461
508
530
732
557
440
564
512
531
419
498
477
618
409
515
627
546
374
520
502
628
553
557
520
651
487
414
527
541
647
443
485
499
575
521
519
484
563
585
411
496
631
521
486
495
442
632
496
464
540
589
486
389
503
584
589
480
477
430
626
492
446
472
579
633
336
449
542
617
492
485
478
598
465
424
507
531
510
502
663
457
762
442
531
526
575
444
570
492
564
461
474
476
493
606
447
528
503
516
484
556
495
528
599
515
442
594
554
542
591
497
666
503
494
417
533
568
463
513
506
639
501
484
537
629
497
456
457
561
551
456
489
568
620
416
591
460
633
329
489
564
547
600
503
516
620
534
453
551
465
658
503
608
477
554
647
372
467
626
1023
371
559
191
533
436
544
478
589
707
406
462
654
494
406
547
449
617
525
522
481
535
532
430
531
600
530
515
525
447
554
554
1023
433
544
628
473
407
597
573
471
536
445
735
480
478
555
569
498
479
489
588
543
430
526
516
552
560
484
475
545
550
1023
0
0
1000
594
0
1023
746
699
561
530
601
506
513
520
465
664
552
460
545
602
490
768
0
145
697
483
651
646
985
469
850
517
900
0
611
0
1023
793
532
744
649
937
651
496
484
1023
515
439
471
1023
447
57
691
692
1
688
529
564
622
0
526
0
512
665
460
504
712
652
470
458
406
542
506
498
449
605
486
463
465
615
536
437
470
497
819
453
464
540
602
511
418
398
549
583
496
486
644
530
679
500
741
592
769
437
0
656
494
595
512
765
616
0
493
0
699
598
601
536
577
0
774
429
697
637
0
905
0
567
384
548
514
1023
612
321
471
510
602
408
628
622
831
621
705
501
544
814
591
0
1023
648
465
600
484
688
482
128
576
790
768
449
559
515
584
417
447
472
637
627
512
413
598
664
306
594
571
627
474
493
468
554
489
430
544
543
513
491
535
540
651
449
518
636
590
541
464
480
543
509
412
517
506
641
0
470
0
649
554
767
0
718
664
0
345
1023
566
0
658
0
640
190
66
386
546
500
826
927
610
574
0
798
0
697
466
600
539
662
525
510
499
676
625
461
464
486
544
605
419
582
434
575
667
471
549
574
459
553
415
567
657
466
635
525
630
462
868
677
203
0
922
80
734
543
699
575
1023
583
367
394
488
612
354
561
582
553
461
528
487
459
586
509
510
505
694
430
481
437
598
426
467
624
696
975
628
0
781
465
363
478
721
801
426
106
234
530
615
689
536
475
622
483
376
534
603
488
454
450
508
638
429
503
575
536
454
705
487
224
699
704
605
672
901
498
443
575
446
354
745
709
929
566
495
408
513
462
699
569
633
519
886
522
642
838
507
495
552
544
518
464
399
608
687
404
504
481
611
644
449
475
649
533
502
464
463
655
0
548
0
612
536
409
637
813
594
296
678
691
647
294
1007
801
339
166
566
0
592
0
382
415
641
1023
115
584
1023
675
897
698
78
1023
480
645
525
784
562
37
764
0
804
585
174
1023
498
723
552
539
658
489
471
1
618
778
546
716
628
813
537
391
491
737
603
438
759
518
681
547
56
1023
238
468
433
585
550
672
508
504
606
598
481
476
598
538
453
479
592
520
581
416
555
467
605
455
500
485
687
445
490
593
512
659
539
482
480
627
533
526
568
631
494
545
344
605
636
486
611
379
716
505
438
443
527
575
433
490
533
551
490
502
409
611
580
470
472
551
506
397
437
549
630
433
546
501
572
491
464
504
614
500
528
480
616
472
490
947
230
832
2
240
669
420
512
539
464
586
530
311
525
561
560
520
0
904
568
639
749
422
698
518
499
537
527
429
528
694
517
777
511
626
383
584
515
1023
503
495
744
662
137
634
8
654
902
263
1023
0
548
723
0
511
396
391
408
619
640
435
560
674
457
485
650
586
499
471
519
408
618
530
466
485
322
523
433
530
541
559
423
548
557
710
736
618
744
686
469
49
484
936
310
579
664
634
592
387
394
496
556
1023
55
698
0
1023
477
690
545
929
490
474
506
542
793
8
664
14
1023
469
595
511
714
875
693
429
758
602
911
596
613
614
447
468
767
595
302
680
295
719
545
543
489
538
698
532
329
464
151
497
650
335
1023
637
0
617
0
829
463
451
487
816
592
448
0
1023
0
520
502
566
725
423
629
1023
678
483
569
609
14
576
243
594
473
802
559
103
0
0
517
506
538
627
506
418
478
0
1023
415
97
675
806
486
0
469
536
479
430
550
1023
425
299
667
536
599
1011
499
275
617
564
0
535
0
687
502
621
484
864
481
606
490
529
606
0
537
0
545
454
0
805
665
773
233
667
624
637
680
660
725
832
0
127
530
903
605
60
836
591
600
450
651
530
575
455
426
462
604
617
515
0
1023
536
864
586
634
648
469
463
330
0
811
477
0
723
545
465
478
640
538
72
797
0
601
863
616
798
625
560
479
481
582
778
654
60
640
247
575
531
510
557
486
362
692
542
618
558
518
514
605
505
404
429
714
596
149
521
376
541
427
668
472
650
496
631
441
556
524
517
541
582
654
475
526
475
627
538
437
601
523
324
630
543
534
580
397
527
484
516
502
511
555
699
751
0
603
0
640
435
730
535
773
520
407
421
497
549
492
519
553
627
504
467
476
610
451
504
425
527
505
570
446
532
598
464
501
0
627
459
445
553
635
494
473
459
619
540
485
481
537
642
419
504
477
620
488
465
499
553
788
450
0
574
0
666
119
660
611
513
502
493
628
313
456
382
729
630
1004
810
474
646
505
491
521
538
488
0
216
659
583
775
482
572
814
543
498
740
605
541
809
518
613
623
993
555
500
595
547
522
463
580
510
510
