CH1
498
309
427
619
673
317
354
600
728
488
296
532
776
500
313
421
630
615
239
480
561
748
422
332
510
748
563
287
446
681
651
314
348
573
758
403
317
584
777
524
304
501
591
657
448
379
631
712
380
285
539
746
471
414
528
662
629
306
399
548
820
366
380
451
740
504
306
386
717
639
330
367
604
738
369
327
542
750
491
343
481
660
629
313
401
620
689
378
351
544
732
493
242
566
642
607
325
406
607
738
344
286
564
728
500
299
479
662
648
270
399
619
700
357
319
555
757
492
299
482
675
658
252
419
605
686
372
321
611
700
494
307
484
671
619
277
450
578
686
344
338
550
773
496
346
465
686
640
266
389
655
694
364
337
558
712
535
337
494
679
632
267
394
618
713
352
316
592
779
464
229
474
736
622
274
414
626
710
339
318
592
720
502
370
458
682
604
276
466
626
675
315
357
547
741
482
268
508
683
607
299
404
605
705
352
393
586
724
472
319
488
710
605
267
434
660
668
305
364
570
748
446
307
525
676
599
274
442
646
648
333
391
564
686
466
357
484
718
563
292
422
617
673
357
345
614
749
421
306
499
726
592
275
426
659
654
333
402
581
738
440
330
498
682
560
297
433
599
690
340
358
588
762
441
314
489
726
553
264
456
621
646
341
368
590
709
390
305
515
746
531
318
435
595
689
336
390
611
692
409
359
509
707
551
286
442
617
640
342
385
607
725
432
306
558
717
555
341
442
615
655
320
360
578
730
436
349
504
736
537
283
437
642
659
333
360
615
713
366
286
530
743
557
292
451
618
639
341
359
624
750
372
327
490
745
520
294
472
616
649
319
393
573
737
385
339
552
708
528
273
428
649
641
316
460
559
716
374
272
628
716
474
363
524
620
629
327
337
665
681
371
313
567
723
559
338
474
590
683
212
373
597
784
412
333
529
784
446
320
472
679
659
274
348
589
749
369
317
567
686
490
355
419
711
622
326
426
599
718
385
356
587
625
639
295
440
689
624
273
379
685
688
335
450
459
761
478
222
548
653
680
285
423
590
675
356
313
584
773
549
214
499
647
614
281
423
601
727
342
352
548
733
500
150
640
679
634
278
442
623
693
328
359
558
750
498
295
489
657
565
395
444
611
715
342
378
531
701
529
303
504
738
656
211
405
559
765
348
304
552
763
489
276
484
672
573
339
442
665
684
388
350
581
730
415
312
562
710
588
295
379
646
707
323
379
564
743
481
269
502
669
626
312
472
613
667
354
321
573
777
444
325
498
682
572
249
467
608
706
374
303
609
715
463
278
484
741
606
301
415
656
641
402
311
605
708
483
323
472
665
626
286
429
648
631
327
429
558
717
478
249
525
664
651
302
445
637
612
430
355
536
806
400
331
509
680
595
265
449
636
677
349
386
544
731
440
199
596
746
566
327
465
647
638
292
363
606
762
434
364
511
687
541
351
449
526
687
373
357
603
697
447
272
490
786
559
240
499
627
584
367
362
573
770
392
322
540
731
487
330
431
617
637
339
350
640
738
403
343
516
749
530
371
407
650
656
312
394
638
724
408
288
525
751
513
357
402
654
640
297
358
637
705
388
359
514
717
539
294
402
589
683
334
398
606
752
346
336
511
724
547
351
435
631
625
325
466
613
676
472
307
536
724
596
246
482
519
734
326
378
563
766
288
475
474
748
481
337
432
643
571
340
362
613
727
371
363
539
715
464
320
474
597
808
259
430
576
724
323
418
486
749
527
288
490
637
558
391
382
576
766
415
321
496
731
512
318
463
652
647
242
428
607
725
365
301
552
758
487
299
411
685
640
303
403
567
749
345
326
542
721
508
334
473
662
649
278
365
636
712
317
437
553
685
546
309
480
650
626
278
418
638
644
361
371
568
772
480
289
469
586
745
257
396
631
700
335
320
601
707
502
326
481
667
637
294
469
607
684
323
326
578
736
505
294
471
670
671
280
418
622
693
332
361
530
751
471
307
526
686
649
248
472
616
687
320
371
554
742
486
283
512
655
608
329
406
613
648
338
395
546
743
464
265
548
630
614
310
445
595
685
328
353
559
729
439
331
495
666
639
272
457
629
662
351
351
527
846
490
276
508
668
594
279
443
675
685
347
329
588
703
465
300
516
687
579
337
405
641
678
307
335
518
744
412
386
494
700
594
294
406
637
662
340
312
648
696
521
284
531
725
561
271
452
618
687
323
412
517
773
436
317
523
685
540
343
486
601
696
330
319
555
741
473
283
518
715
571
249
398
686
651
360
398
567
750
455
285
487
704
555
319
443
631
639
373
346
564
681
524
300
494
703
555
244
487
619
662
351
398
583
720
440
341
499
689
574
246
485
629
674
343
328
615
732
416
300
528
712
545
370
377
642
643
307
389
619
748
377
283
576
707
580
256
435
683
614
348
380
559
774
448
319
521
679
590
265
419
657
668
319
368
589
745
420
306
526
687
560
356
447
616
672
307
387
595
722
401
318
560
719
548
292
444
635
658
310
357
660
729
384
341
531
734
505
339
450
620
612
368
372
595
740
393
306
505
700
544
290
507
623
637
336
368
602
717
409
302
552
757
506
280
410
686
581
334
442
583
756
394
349
500
718
525
285
476
628
638
329
380
618
732
363
370
501
771
491
292
492
688
619
319
384
642
688
358
325
519
852
506
279
486
630
668
299
369
604
745
377
320
528
755
505
301
425
664
642
296
406
564
677
445
328
519
752
520
294
463
613
644
326
367
605
736
314
368
557
752
516
255
493
614
639
311
404
649
684
388
312
536
767
508
305
456
697
603
282
473
594
701
344
337
558
746
488
324
429
662
631
278
415
589
729
386
325
537
717
500
234
513
654
615
317
412
605
725
364
370
512
735
523
251
526
669
646
222
417
615
697
358
326
544
750
548
323
478
679
620
292
382
598
710
307
434
513
768
492
323
509
663
587
265
434
602
735
279
346
580
719
488
292
477
690
578
349
402
652
676
383
310
586
725
469
291
514
665
568
350
419
626
687
334
380
533
716
468
300
537
683
628
314
418
589
732
306
331
591
719
506
311
510
671
637
295
437
617
694
318
333
604
761
460
280
503
686
633
262
418
663
675
355
342
563
756
478
331
486
687
633
302
435
640
649
407
373
557
706
484
288
486
661
647
291
488
607
691
342
352
578
748
432
320
498
686
593
302
375
658
685
309
349
551
747
426
299
482
782
596
276
421
639
675
348
336
546
773
475
266
506
772
597
268
452
634
642
349
336
607
757
460
294
508
688
605
280
374
637
685
344
358
575
726
478
316
522
689
600
302
361
660
681
336
357
560
750
464
311
546
684
604
277
437
625
670
349
366
595
705
420
349
525
689
595
267
452
645
661
367
360
538
808
468
340
522
684
611
287
388
636
692
320
404
551
774
447
328
524
685
543
269
484
627
654
366
361
619
763
405
338
513
687
555
319
411
688
634
333
358
582
724
469
306
516
747
524
321
456
622
648
287
380
593
746
412
309
554
713
546
300
424
642
646
343
387
609
683
493
311
494
689
548
338
432
589
647
371
359
604
753
418
317
524
680
664
270
442
627
657
318
353
632
697
398
374
513
708
552
310
436
601
622
321
387
585
748
387
353
524
708
549
274
440
634
646
327
342
649
772
385
364
509
751
519
314
458
579
698
344
341
592
701
445
334
509
730
528
323
400
632
656
331
361
582
758
406
311
523
752
563
223
482
635
634
304
423
614
736
341
352
550
724
518
278
473
634
645
323
400
572
761
425
327
530
716
603
291
425
612
684
301
423
547
789
371
342
544
730
511
323
436
624
647
315
371
588
782
394
300
548
748
526
274
458
612
645
300
406
610
718
376
333
600
722
479
313
443
658
634
330
383
572
779
369
322
504
804
513
283
466
642
580
386
355
641
718
407
313
537
722
501
288
483
607
683
353
393
611
731
322
342
562
712
512
311
425
652
600
337
406
609
719
353
384
536
738
514
260
496
631
630
312
403
599
716
392
321
544
724
545
364
444
649
600
383
412
531
752
399
329
537
747
432
370
454
664
643
243
455
608
715
377
364
541
686
492
263
480
672
642
284
409
586
722
387
285
543
750
504
270
509
646
659
289
406
632
686
397
305
524
751
508
291
465
639
624
293
403
603
717
342
359
535
746
506
287
460
607
667
308
403
632
700
363
327
561
720
491
339
473
661
651
267
441
567
771
353
314
529
731
511
263
442
753
623
288
403
607
703
347
374
542
705
490
304
498
668
609
313
396
614
695
324
403
513
749
476
276
482
652
583
323
390
664
636
349
358
570
714
442
359
489
673
622
265
428
624
714
328
334
528
784
472
265
524
641
637
265
399
612
651
418
288
637
678
519
283
525
671
615
297
434
634
653
348
353
593
735
498
277
509
622
670
362
434
619
669
379
334
531
752
481
323
483
679
635
281
436
583
708
372
347
559
740
537
254
517
661
642
282
458
561
747
348
361
566
754
522
279
474
685
642
282
409
679
683
265
436
574
726
488
324
487
672
640
273
417
642
675
321
339
592
764
446
316
482
684
619
326
424
622
680
366
347
585
735
426
336
505
668
600
309
434
619
670
343
353
569
746
432
325
477
683
645
240
431
681
667
328
364
572
745
396
358
493
687
563
341
386
707
642
351
343
565
787
464
296
514
667
623
310
438
618
685
314
400
562
743
482
296
520
675
622
242
440
642
669
341
319
580
777
477
274
543
657
612
347
431
616
699
327
359
583
735
459
291
489
686
562
307
465
605
663
347
336
552
753
501
296
529
684
608
244
459
666
656
341
352
587
740
449
326
496
685
596
305
379
695
686
344
324
572
745
409
326
475
744
542
316
466
637
664
325
347
574
744
447
320
486
740
600
257
455
608
688
304
332
592
703
492
337
474
684
597
273
443
627
635
327
383
534
818
462
334
511
686
556
316
422
641
664
375
325
605
772
417
312
522
719
549
277
433
656
685
314
365
583
729
371
362
550
710
534
298
427
653
685
341
363
577
776
437
294
512
732
540
294
387
653
659
324
394
597
706
408
349
526
707
544
288
442
638
636
316
365
589
760
392
336
546
692
553
277
435
599
683
341
355
606
729
399
322
501
690
574
293
413
661
651
332
390
610
714
373
377
524
709
552
283
418
632
633
354
362
591
710
444
301
546
710
574
275
453
619
640
318
407
553
701
427
340
489
785
552
310
439
645
651
331
360
583
735
410
328
516
740
558
324
394
723
621
366
402
595
689
418
356
495
739
565
278
439
647
646
320
407
600
716
386
326
530
682
585
282
437
617
655
361
362
629
720
382
360
518
724
523
307
464
629
646
322
370
594
741
399
330
485
788
533
257
525
616
666
344
382
574
765
366
338
539
733
519
286
471
625
636
344
386
590
743
357
283
586
720
534
311
515
611
639
315
433
603
723
364
328
550
751
516
300
451
655
633
334
368
592
724
412
331
549
688
555
275
459
646
598
376
380
600
713
394
336
498
758
505
302
474
618
631
337
428
589
726
363
334
533
688
546
302
445
667
619
306
375
611
752
381
317
545
746
480
282
462
671
644
284
414
617
685
340
386
543
727
493
293
456
674
644
277
382
639
717
379
325
543
728
492
305
484
679
651
307
401
568
721
373
319
532
722
507
349
460
645
656
317
389
581
703
393
334
562
729
499
291
480
625
708
277
392
618
726
411
334
531
688
519
333
460
641
643
295
398
604
684
388
249
593
731
481
357
489
636
608
325
397
582
737
378
343
524
736
506
273
495
627
656
295
408
607
707
340
340
536
785
456
321
434
686
625
274
427
639
685
378
292
563
737
506
283
482
647
672
263
466
597
698
380
283
583
693
504
328
456
651
647
267
407
609
716
337
342
534
753
492
262
481
665
609
294
372
620
703
338
328
606
718
490
283
508
645
662
247
484
604
684
318
341
652
710
477
271
497
710
647
286
439
644
701
332
351
512
748
482
287
546
672
627
259
472
611
704
346
346
569
725
462
319
525
689
617
269
471
618
685
323
364
570
724
459
276
537
683
597
338
414
622
680
340
348
559
731
498
322
483
686
636
289
348
684
686
344
332
586
686
505
310
506
684
636
261
470
610
692
325
388
570
684
550
315
454
719
615
258
442
660
690
374
324
575
764
448
265
515
654
640
286
459
623
630
418
381
552
745
445
299
511
684
618
303
405
685
664
311
381
563
729
457
291
501
664
651
289
467
612
703
373
360
576
768
412
312
496
687
585
316
421
650
629
338
346
581
746
496
259
555
666
604
261
451
651
645
348
399
571
686
496
295
501
686
591
307
453
604
685
344
366
607
790
411
261
593
666
597
294
467
652
668
327
355
575
730
467
266
538
698
580
262
420
675
623
356
374
578
750
448
339
468
681
684
271
436
616
725
288
367
564
753
470
310
499
656
619
289
450
617
680
281
383
600
716
456
341
519
684
566
279
439
617
648
332
355
596
743
443
314
480
730
600
259
448
632
661
338
387
543
732
479
311
474
733
565
325
420
608
756
332
416
569
736
449
321
500
690
562
313
430
583
717
324
385
584
750
423
341
487
706
548
268
456
578
718
324
394
589
764
431
318
473
725
562
247
507
631
654
359
362
610
701
428
299
522
742
596
260
477
666
649
376
354
563
763
431
341
509
708
558
305
441
649
657
369
349
585
725
408
324
514
748
583
278
438
631
654
361
341
555
757
497
316
520
706
557
287
418
619
664
360
352
570
701
373
362
589
686
533
315
446
601
624
312
413
617
724
380
344
510
753
521
326
436
620
636
301
406
580
730
412
323
537
743
527
301
431
604
671
342
386
566
705
389
326
538
686
599
268
477
588
660
321
395
601
750
372
326
547
743
516
301
447
622
654
356
391
593
686
424
332
531
758
525
303
437
609
683
314
381
641
725
354
365
544
735
508
275
455
645
628
342
374
599
747
412
323
535
748
523
254
460
631
642
349
383
588
694
401
315
528
761
529
282
468
630
617
317
428
625
686
473
337
538
740
501
276
479
628
642
322
398
606
717
368
287
528
761
466
317
475
639
617
333
415
571
740
365
296
527
795
505
285
456
686
650
299
423
587
735
369
306
541
754
513
314
472
666
629
309
365
659
684
418
310
557
728
530
290
437
675
652
296
402
619
703
364
315
573
746
529
280
466
658
680
226
483
616
684
353
355
532
726
437
309
521
648
651
295
423
602
692
351
300
627
723
480
280
494
679
647
260
442
642
681
340
363
528
741
480
320
502
648
637
259
453
624
709
371
335
546
728
484
296
533
686
625
311
387
615
677
394
323
619
715
500
302
455
657
657
289
397
610
741
351
349
550
736
495
360
460
676
640
276
420
592
701
320
433
567
723
461
313
482
668
646
296
426
629
708
315
366
588
725
473
289
467
712
669
293
404
633
717
337
337
567
750
453
343
482
668
638
320
427
600
686
375
325
604
704
449
333
451
678
624
281
427
596
681
313
406
599
716
487
304
495
650
615
249
438
638
685
326
342
551
819
482
283
549
685
610
274
415
646
712
328
351
581
749
455
300
509
708
613
213
471
644
677
346
324
591
765
441
308
519
704
594
283
438
629
684
328
362
610
776
448
272
558
715
558
276
435
645
658
310
337
591
722
485
320
499
682
581
257
436
649
665
291
346
624
773
414
320
525
732
558
259
427
646
727
291
367
595
771
410
273
540
733
551
287
465
636
572
413
362
578
792
374
310
526
737
542
240
430
686
669
310
386
623
707
430
297
534
757
538
277
450
656
662
324
417
606
726
351
323
550
749
527
267
460
677
608
328
342
685
726
377
299
564
763
506
264
475
687
631
291
376
626
771
361
285
535
761
511
232
491
680
608
307
347
656
755
346
330
545
741
494
313
454
672
648
274
384
641
727
348
347
552
734
499
315
441
625
703
256
413
598
766
350
336
542
759
477
282
504
642
646
288
397
601
736
349
339
552
758
496
268
441
686
620
273
380
634
779
316
361
569
743
497
257
462
676
632
292
408
627
720
330
328
599
770
438
344
482
723
589
267
491
621
724
285
340
560
770
457
330
467
671
637
267
416
646
730
332
283
622
765
464
298
482
685
623
287
403
641
745
324
330
599
761
439
300
500
685
606
262
419
652
699
351
323
578
774
453
299
472
638
674
205
473
621
740
289
358
583
765
443
285
490
711
635
234
396
685
727
286
351
592
773
453
256
472
711
638
261
412
664
737
319
334
605
762
437
292
496
685
632
232
490
658
685
309
316
598
757
457
284
488
690
621
258
427
644
780
231
349
607
748
449
285
492
694
579
234
463
634
713
293
339
578
776
435
288
503
736
603
200
454
638
697
295
377
581
768
458
271
522
687
652
224
430
663
741
290
335
614
755
423
262
494
685
621
247
397
704
696
288
363
601
762
453
282
547
687
555
288
416
685
670
301
392
626
730
410
340
524
653
684
242
423
626
722
270
334
638
750
428
303
510
686
644
242
457
626
686
330
326
612
742
500
242
525
731
627
220
440
655
684
304
350
600
775
417
284
518
685
626
274
482
647
679
338
325
631
751
437
239
581
739
542
258
504
645
664
304
326
653
723
419
312
494
739
584
220
471
649
640
366
334
645
764
426
287
521
720
582
258
456
645
684
269
346
584
769
412
335
538
722
577
262
466
653
670
307
378
591
752
408
274
603
687
626
267
478
641
691
312
363
578
748
406
294
521
713
570
274
403
644
702
309
349
630
737
419
280
510
732
578
290
427
686
667
298
350
643
724
446
305
540
705
570
278
416
687
660
332
360
593
810
436
312
495
740
545
281
427
630
676
298
359
588
783
434
284
508
714
532
313
430
657
649
365
360
570
736
430
306
554
671
572
269
471
603
687
329
358
619
743
437
274
540
747
523
299
472
628
686
312
370
606
732
426
302
496
754
550
244
436
672
655
330
369
587
700
476
309
508
715
547
273
461
637
667
335
400
578
740
412
291
534
723
531
323
446
647
658
314
355
605
712
420
344
510
723
540
278
429
626
677
288
419
592
727
421
336
473
738
550
284
427
679
651
322
367
606
757
395
338
528
719
552
312
436
634
651
332
388
586
731
410
319
524
742
509
311
405
648
654
320
374
600
745
385
305
544
734
526
272
474
633
656
316
371
596
714
395
331
529
718
571
294
460
625
621
377
379
578
750
395
307
494
752
559
263
448
683
630
281
383
613
716
445
292
499
782
547
329
465
643
623
310
427
597
757
383
313
511
796
491
271
475
665
625
257
425
594
755
442
310
498
776
521
293
475
599
666
269
414
612
744
371
312
555
687
540
223
533
645
621
322
384
638
712
409
334
454
770
563
263
520
645
688
269
364
592
740
330
396
519
751
454
301
504
638
650
306
400
625
714
344
337
526
784
490
321
453
649
563
350
407
611
751
354
307
614
724
474
306
491
632
581
378
381
629
732
385
320
537
729
526
278
460
680
608
293
358
674
681
377
317
565
745
475
267
479
675
608
284
417
604
739
362
337
539
739
500
288
475
688
622
312
408
600
722
378
316
545
740
490
273
468
657
620
259
466
615
691
354
321
559
734
519
315
460
650
670
249
430
627
715
338
324
645
699
519
316
473
683
611
270
452
595
698
384
339
508
760
554
300
456
686
622
253
454
612
697
391
341
544
752
491
312
472
653
644
271
406
625
753
334
346
531
738
482
285
489
660
622
316
403
614
728
384
293
561
765
504
297
496
680
628
288
408
608
717
368
341
557
762
501
308
474
716
628
277
399
623
684
372
346
562
741
487
230
540
667
637
274
436
612
683
332
333
617
700
497
306
451
683
632
317
424
619
684
361
380
565
730
465
311
478
669
632
312
404
645
683
325
335
589
718
495
331
476
685
616
296
423
624
674
365
336
568
735
492
302
474
673
610
305
448
557
724
354
326
608
749
467
310
484
664
646
289
456
585
705
323
404
571
711
532
305
482
700
606
280
403
667
685
321
336
570
751
434
337
503
675
637
304
403
614
735
359
347
564
746
457
287
550
673
644
230
461
663
659
308
333
623
735
486
270
541
653
601
314
410
620
684
329
363
596
739
475
297
511
682
612
296
429
622
685
329
375
525
778
429
352
495
675
600
289
435
595
665
430
332
546
747
478
305
492
681
623
283
443
613
679
371
344
594
687
547
273
496
676
615
290
399
631
701
346
360
572
746
462
294
498
685
619
268
424
642
684
306
319
643
736
428
307
495
715
587
295
432
637
698
330
332
595
694
485
317
503
683
592
301
446
615
684
309
378
537
765
474
310
505
655
623
336
395
627
682
293
370
593
686
492
272
507
687
581
212
496
608
749
353
345
593
759
405
312
526
640
650
318
401
625
647
351
390
575
725
450
314
504
654
607
310
440
621
712
294
406
546
772
439
312
530
673
564
313
455
633
663
347
326
577
744
433
312
511
689
559
277
453
625
685
296
395
578
715
395
286
561
718
552
316
450
610
695
319
365
586
720
423
301
541
700
583
262
392
655
693
302
382
580
765
409
323
506
772
559
285
423
574
737
281
372
546
819
401
264
531
739
559
305
430
625
665
334
371
595
727
380
302
558
685
579
259
472
641
626
342
372
612
752
401
356
477
765
573
304
449
625
652
314
390
595
749
422
294
538
731
505
316
463
622
657
353
437
545
682
447
258
584
733
530
293
422
580
724
299
398
643
711
369
304
538
721
544
260
495
616
684
292
379
611
751
401
314
514
734
537
340
442
593
600
388
376
595
738
397
318
515
659
606
286
461
609
610
330
369
589
679
444
371
512
694
533
307
425
561
651
335
407
635
757
403
282
526
758
511
377
441
672
626
283
377
611
719
443
297
512
744
489
355
452
647
617
311
389
616
729
355
351
523
730
527
277
475
656
628
331
352
601
741
387
308
537
801
493
281
472
623
662
309
381
598
747
399
307
537
735
515
322
444
612
651
299
420
604
726
372
333
518
721
532
327
470
640
650
287
423
583
744
400
345
523
723
511
273
509
616
656
322
374
598
732
347
329
521
760
509
298
418
629
720
235
450
611
738
425
264
544
722
458
320
521
639
640
270
422
565
730
377
351
539
737
494
263
489
678
618
323
391
637
733
385
311
485
801
378
421
457
670
677
312
389
572
727
375
325
564
698
490
367
480
624
678
263
413
578
713
360
324
552
747
528
329
448
684
627
303
398
604
686
368
339
564
733
547
293
499
655
654
305
449
582
742
346
302
552
726
499
298
492
636
625
330
297
716
684
338
354
558
729
488
284
462
666
636
277
426
638
690
348
344
556
735
475
314
523
700
621
264
458
598
727
357
320
564
732
527
260
490
677
650
275
383
685
675
355
355
601
717
465
312
505
681
609
279
429
626
676
359
328
568
729
469
311
471
629
651
329
380
615
731
300
331
574
744
512
312
470
686
634
318
438
578
773
341
325
556
765
470
288
521
665
615
309
406
632
685
332
350
578
761
482
297
515
656
613
320
406
618
685
351
339
599
764
458
303
499
667
628
207
443
664
661
350
335
546
784
470
331
483
718
632
245
505
595
685
346
348
589
733
469
295
503
676
647
257
426
633
682
320
337
556
748
500
307
508
673
625
283
397
654
662
306
350
596
740
488
338
485
659
623
257
468
622
689
346
334
571
718
500
298
559
684
603
283
384
723
668
347
345
611
737
456
247
554
725
622
264
448
602
702
337
353
548
821
413
306
524
684
586
306
439
618
643
361
325
579
722
486
272
524
717
610
283
407
638
714
315
340
624
756
478
319
467
685
593
293
452
611
680
309
416
605
742
445
265
570
673
611
262
481
637
674
312
357
565
773
431
316
492
728
560
276
444
596
753
336
351
572
751
412
319
508
687
610
290
448
617
686
378
365
562
768
431
308
511
727
573
304
423
589
676
334
382
597
754
402
295
525
720
564
299
449
590
719
344
353
559
754
421
324
503
690
540
334
379
666
633
385
368
587
730
402
386
506
684
587
234
442
633
677
324
393
593
715
370
380
533
698
552
314
416
611
660
338
352
563
752
437
304
541
723
575
297
423
622
640
382
328
618
714
440
328
507
708
554
282
480
630
655
333
361
608
735
403
310
530
703
596
276
429
630
661
321
358
564
767
414
351
522
726
564
285
400
638
671
313
383
610
744
368
365
520
726
551
282
471
613
657
311
374
628
726
381
332
545
692
533
293
433
635
651
325
380
524
810
409
304
542
711
544
301
443
615
633
393
383
567
712
407
352
499
744
524
305
444
602
640
337
413
588
678
437
320
517
728
532
328
429
644
626
333
389
600
709
412
299
546
685
556
332
431
630
640
298
389
598
724
387
325
533
768
500
285
474
629
649
317
369
637
733
366
336
528
757
479
327
462
635
613
313
385
618
736
352
343
526
772
505
302
467
661
621
297
360
635
728
387
320
516
732
520
306
454
668
616
324
362
615
725
384
317
520
760
512
292
497
646
614
316
376
600
728
382
307
556
714
506
301
479
645
647
298
403
602
712
361
290
559
768
496
288
490
649
613
337
418
577
762
364
306
548
750
499
328
469
653
628
296
431
617
715
374
315
499
768
547
305
470
655
637
248
408
627
717
355
345
541
729
478
307
478
654
644
301
406
576
740
364
323
575
728
508
263
513
653
658
263
445
598
711
376
337
535
707
516
302
475
681
624
297
443
566
717
376
329
565
722
498
289
506
659
667
293
409
621
716
330
365
560
681
527
337
476
671
701
275
411
603
700
357
311
619
722
507
306
466
674
642
297
413
629
683
370
327
547
715
522
309
449
678
643
305
454
614
696
334
340
579
708
482
333
514
680
632
286
408
612
706
335
352
509
774
464
337
494
666
663
270
446
608
686
345
335
522
764
444
313
509
682
629
308
414
583
728
342
335
593
734
469
281
521
675
620
295
432
595
683
375
328
589
769
479
276
510
633
637
304
384
674
708
314
346
596
722
502
301
531
668
626
295
419
616
694
351
284
608
751
445
303
517
665
618
310
403
628
680
364
373
522
772
451
370
493
680
620
260
440
604
674
344
351
587
725
510
290
498
667
602
339
431
622
684
319
333
618
739
459
318
506
674
544
304
526
633
678
321
389
520
750
417
328
479
687
560
282
460
622
676
323
320
625
757
432
345
487
742
556
339
431
541
715
318
385
589
749
433
315
476
687
595
314
419
631
627
352
386
591
760
452
318
473
712
564
264
493
610
687
365
385
544
796
413
293
506
749
567
278
409
664
691
288
421
553
749
431
311
511
684
600
278
408
632
656
349
374
552
744
414
298
554
665
608
285
432
677
673
300
388
594
731
351
355
522
730
558
259
478
585
658
410
360
537
735
401
356
520
668
590
287
467
623
635
376
353
602
686
469
334
524
704
578
284
435
623
651
347
350
554
825
388
314
524
772
513
321
466
605
659
344
354
540
766
396
368
481
754
541
331
429
626
627
334
365
619
743
385
334
490
771
525
330
403
663
653
328
391
577
729
407
280
549
728
565
218
471
620
603
387
319
609
763
391
352
477
765
520
306
396
742
564
364
417
589
727
398
302
533
724
546
317
452
569
685
367
409
596
744
381
256
504
720
449
453
379
731
655
290
401
598
685
426
288
555
719
542
244
462
682
607
292
345
663
685
327
391
527
800
312
549
435
657
645
310
381
570
677
387
388
576
666
568
302
405
699
643
263
328
752
698
371
339
584
735
526
227
540
642
672
337
382
606
728
341
309
560
725
517
302
441
714
612
261
467
636
705
344
320
529
722
523
269
470
680
612
265
409
586
714
355
304
557
704
543
322
456
648
668
262
442
564
711
412
303
578
728
467
380
454
646
657
328
391
642
695
384
223
572
909
353
422
456
673
583
403
362
621
664
432
357
548
616
583
284
461
671
679
255
410
576
809
231
435
561
735
438
309
470
713
649
286
397
616
686
425
341
594
744
491
322
498
723
663
278
406
632
639
374
338
594
762
404
309
547
649
701
286
397
656
674
334
385
562
729
494
300
458
685
642
266
456
627
672
311
386
560
771
431
319
495
667
604
339
429
570
728
369
377
561
754
473
263
521
682
595
299
412
627
617
478
362
592
719
469
274
484
653
619
306
401
652
675
320
335
583
777
417
336
506
656
646
275
424
639
682
312
358
600
744
439
259
568
769
542
282
448
618
651
337
311
568
813
460
296
507
731
564
302
371
675
703
360
366
630
738
392
344
528
683
543
301
452
624
662
345
343
571
749
453
288
538
717
548
219
489
591
715
338
331
636
733
415
297
511
706
550
323
437
621
653
372
387
504
808
404
345
523
729
474
339
439
651
660
329
378
577
683
447
319
524
716
541
297
395
686
648
318
396
595
724
376
281
543
769
515
330
434
622
634
294
395
598
730
401
288
562
732
522
283
438
639
641
325
393
583
760
363
260
595
753
523
322
470
650
629
321
386
622
708
346
409
508
719
512
338
437
629
666
310
389
624
722
365
296
524
779
511
280
452
530
769
315
391
576
757
385
312
527
740
522
292
457
658
634
312
397
620
727
326
351
530
765
543
297
466
630
616
323
440
589
717
336
339
540
746
530
258
493
603
624
286
429
623
701
362
315
528
738
498
326
473
611
669
307
407
587
795
361
325
528
760
486
351
466
665
631
288
392
626
725
372
306
594
713
505
257
536
641
650
253
450
625
702
350
337
543
732
509
306
486
669
653
293
401
639
707
358
362
495
761
525
296
458
666
651
257
408
604
718
326
305
564
747
497
282
499
683
645
265
415
621
688
342
341
555
768
476
318
541
704
639
348
432
622
684
305
329
550
753
448
298
545
660
610
244
416
686
700
307
358
511
756
458
379
489
644
685
287
406
573
708
349
372
580
746
459
332
486
684
616
267
504
602
721
334
309
633
742
375
331
506
685
563
335
488
535
742
346
315
585
750
425
231
559
721
599
271
455
605
686
292
346
622
758
444
308
485
726
588
251
475
594
685
302
351
610
741
478
289
531
722
566
272
450
659
666
283
338
603
790
390
314
507
688
564
284
412
656
717
317
355
591
773
400
310
535
693
536
308
417
658
668
352
368
573
751
383
331
505
719
589
281
431
638
650
314
366
605
748
411
304
511
741
530
304
484
603
664
340
378
510
808
396
300
546
723
540
270
423
652
705
319
365
601
734
368
295
526
757
531
295
436
631
609
335
388
608
743
392
288
538
733
466
410
438
628
642
309
419
585
733
364
365
536
736
526
284
461
622
556
412
380
606
729
414
306
514
720
523
306
434
666
631
302
393
602
725
396
300
522
762
528
304
429
628
650
323
418
604
693
402
320
521
731
512
330
444
646
626
318
410
609
711
373
290
528
745
551
305
477
640
666
283
387
650
705
344
306
505
729
559
312
485
635
657
286
389
593
696
385
321
541
752
495
286
479
687
643
282
408
592
768
327
324
556
736
507
236
447
689
664
280
420
606
644
349
333
565
746
508
308
498
613
648
329
411
620
701
379
292
538
798
460
335
482
685
627
196
459
681
717
321
375
571
741
387
442
524
658
636
293
309
633
805
328
381
552
747
457
338
484
622
695
291
384
637
778
291
371
530
861
437
302
479
687
652
246
447
597
750
329
350
495
776
524
261
506
730
620
306
368
675
711
311
285
649
752
456
266
526
687
582
328
461
624
682
343
334
592
752
355
342
487
765
578
267
442
626
685
306
319
656
755
495
287
478
675
660
312
388
684
617
373
329
575
758
443
281
481
679
599
282
440
658
581
453
315
542
832
439
298
473
726
547
294
438
630
679
313
321
622
751
403
310
504
746
511
311
438
681
628
311
433
568
802
424
278
547
764
507
298
466
639
583
369
405
607
706
419
348
496
741
498
327
404
668
652
336
345
625
763
406
303
537
774
507
306
362
697
617
324
421
592
729
392
330
470
799
544
292
360
670
653
333
365
629
737
340
328
500
754
535
259
497
646
622
353
388
611
759
320
334
464
846
487
299
426
655
648
317
345
620
708
375
322
493
739
547
287
459
654
659
310
368
573
763
398
308
488
796
507
305
493
651
643
271
382
615
737
374
294
550
736
494
301
477
683
620
255
418
607
750
390
337
572
670
512
320
450
668
653
281
329
655
757
323
427
531
744
482
301
477
586
631
355
401
618
700
356
321
528
728
475
333
492
669
631
177
527
614
686
378
273
591
714
506
282
471
685
687
253
451
608
717
334
333
566
760
506
294
490
701
631
328
390
604
717
384
280
543
814
462
260
453
707
630
275
420
648
655
338
408
568
705
557
302
474
685
684
287
406
658
651
358
324
567
748
473
280
438
756
657
267
460
622
672
331
382
550
785
494
288
496
681
614
304
407
632
665
340
363
585
763
442
309
535
747
599
263
473
630
575
385
334
578
774
467
266
526
683
606
273
304
768
659
344
314
609
793
422
268
507
685
570
270
462
597
687
356
364
554
745
448
301
524
725
542
242
497
655
662
323
343
561
764
343
322
565
729
535
274
428
659
654
322
340
644
735
407
280
535
752
510
360
441
624
662
317
354
578
768
416
308
508
676
618
292
419
632
686
320
406
548
799
362
381
504
733
575
292
484
620
627
325
380
598
716
420
312
527
722
547
322
422
649
644
306
401
594
683
453
306
549
755
528
278
440
651
638
325
394
637
686
432
326
510
733
548
313
427
670
580
336
376
602
732
387
297
531
730
454
315
470
642
616
279
429
678
716
366
310
539
716
530
271
471
689
602
276
438
607
684
404
397
516
715
576
288
468
674
631
311
397
612
765
365
293
544
756
467
224
536
652
650
319
383
613
754
348
329
578
728
550
268
479
649
650
266
422
596
705
364
333
559
721
507
243
491
738
638
304
454
619
697
311
372
581
733
509
260
526
657
650
294
432
641
693
324
360
604
725
504
270
490
660
641
297
446
620
716
337
331
571
739
468
283
501
665
625
296
395
620
678
334
398
570
748
485
313
485
683
626
268
390
644
670
309
404
541
793
492
260
490
704
631
280
422
636
686
302
354
566
752
468
287
505
684
588
322
397
642
698
260
378
562
754
464
334
495
731
599
276
434
654
681
299
359
568
796
404
315
481
684
639
276
469
590
735
330
338
603
783
450
298
523
673
592
260
445
597
736
344
335
552
855
439
242
492
718
568
291
422
666
723
289
381
537
837
429
310
504
725
566
290
377
672
657
379
353
591
745
433
335
493
720
570
242
398
666
682
342
352
601
755
402
326
502
724
597
274
429
641
705
363
351
620
731
424
280
510
733
604
324
414
664
685
305
389
558
809
401
295
568
721
530
313
417
674
620
322
371
604
744
356
348
495
718
597
294
468
628
642
330
337
656
743
371
348
548
742
484
314
418
667
667
318
381
605
755
390
294
519
738
533
323
462
588
722
282
378
625
733
373
306
549
744
502
292
469
641
638
293
452
584
723
373
309
536
738
512
272
445
670
685
334
391
619
726
400
273
527
761
524
309
456
646
626
286
390
595
716
403
250
560
740
496
276
479
662
649
282
398
613
733
362
322
542
748
504
279
466
675
631
270
405
699
631
350
356
495
744
497
307
426
727
668
257
404
585
751
346
323
553
729
525
279
465
677
630
245
465
655
688
354
331
535
762
503
288
463
682
670
257
402
602
770
310
332
556
717
513
285
518
679
668
259
392
665
682
360
335
533
756
415
369
473
654
669
330
402
607
727
340
355
563
717
499
306
448
725
638
317
397
651
696
320
330
569
735
510
284
492
686
624
326
405
662
703
320
326
584
748
464
296
513
686
608
293
423
684
685
276
378
555
777
483
224
537
685
627
251
451
614
676
334
350
539
812
453
308
478
687
616
273
424
685
647
352
334
637
764
442
278
532
687
560
267
487
652
671
309
405
587
727
463
294
529
664
586
285
428
656
686
309
373
595
768
429
284
531
709
557
285
390
686
686
313
344
584
744
407
365
479
790
558
294
444
588
685
349
357
602
738
437
271
527
760
539
273
443
607
716
315
364
590
740
386
315
506
748
540
327
427
651
661
344
354
638
736
387
357
502
738
532
301
409
671
646
324
422
556
735
380
367
520
723
550
292
433
597
701
304
374
591
766
428
287
507
747
529
312
431
622
677
270
394
633
743
393
320
533
741
483
319
462
641
665
296
391
599
775
372
334
543
746
525
290
448
616
673
314
416
597
733
395
322
526
781
552
273
442
638
625
269
413
611
747
382
305
523
747
518
281
458
653
647
299
406
588
742
359
348
500
769
546
315
442
715
611
296
355
649
723
367
292
563
742
520
260
482
614
611
378
403
626
727
381
288
512
751
537
286
464
699
637
259
403
653
708
382
284
570
740
546
321
464
634
629
266
385
610
743
347
335
521
778
497
272
484
671
662
261
398
667
722
335
330
542
728
517
296
465
652
612
366
388
614
729
353
326
502
751
521
315
467
688
634
272
399
583
747
356
299
565
735
510
307
455
678
662
275
409
629
701
339
317
558
778
493
341
478
678
639
264
418
631
717
359
314
559
728
475
335
468
726
633
248
432
635
682
340
349
579
684
494
315
470
686
635
268
419
633
737
342
331
581
694
521
298
437
684
628
293
322
712
641
399
313
540
761
505
316
489
679
629
252
415
637
685
333
319
600
756
466
314
437
718
650
298
425
635
741
313
309
578
767
467
280
533
674
622
267
442
672
641
336
367
590
736
441
331
507
684
617
292
421
597
618
424
372
584
763
456
270
513
686
601
279
425
653
671
296
332
686
738
431
292
545
692
549
307
430
616
672
362
321
601
762
465
277
501
732
556
305
423
624
668
322
315
634
778
461
315
525
640
663
255
481
625
663
389
319
589
769
437
314
502
688
569
278
438
597
695
313
373
575
768
442
318
551
663
583
287
472
580
668
336
394
563
753
419
342
491
713
566
265
456
610
673
301
413
541
763
448
298
507
669
610
277
423
608
685
337
362
586
716
408
334
500
749
545
286
441
579
696
345
327
669
762
396
282
510
734
561
267
472
620
650
346
373
568
756
375
332
547
662
588
286
386
666
651
393
306
646
767
368
312
521
740
524
272
465
637
652
334
364
575
764
395
281
566
758
550
292
473
636
664
377
362
570
765
411
296
519
742
534
276
444
615
630
347
408
588
756
370
286
533
725
539
320
406
688
601
338
385
605
728
379
324
539
738
521
284
472
638
640
260
426
645
708
359
356
510
777
492
319
436
685
629
287
387
628
712
371
343
558
748
511
301
434
691
630
288
315
634
764
377
277
564
768
496
267
466
660
636
298
395
611
683
377
262
642
676
508
321
482
634
655
286
390
615
732
366
247
624
744
493
274
519
616
683
286
406
599
716
306
371
551
763
512
331
452
687
623
283
419
602
707
352
326
525
736
456
381
493
616
684
280
413
557
713
345
334
574
743
498
270
501
678
632
286
445
592
736
319
315
574
729
481
289
480
748
652
266
388
635
731
336
304
521
744
508
332
479
672
685
248
424
647
648
348
364
545
749
487
271
494
655
677
245
464
623
688
321
342
621
723
510
300
481
682
658
244
443
612
723
383
295
619
744
455
283
475
656
655
299
402
609
699
318
332
577
748
494
305
499
668
628
329
351
682
701
339
360
585
716
475
301
496
644
639
304
431
623
688
332
344
574
739
468
327
530
679
632
221
426
611
794
332
326
569
744
482
305
472
678
633
287
408
648
676
335
430
565
714
509
256
524
661
676
282
407
631
669
402
352
588
765
465
278
488
690
583
268
466
576
719
328
367
577
760
501
274
493
684
627
303
419
644
657
373
337
565
763
484
279
461
719
595
239
387
676
701
310
353
574
773
424
285
553
687
619
268
424
615
667
381
334
575
755
439
267
522
685
578
336
380
634
773
304
376
589
740
425
296
510
721
595
320
409
646
679
325
377
583
751
448
293
506
685
577
299
424
623
612
411
316
606
730
451
320
447
744
558
306
469
616
672
259
450
572
748
403
335
512
719
548
289
467
611
682
299
363
606
739
406
371
502
686
585
325
410
602
643
380
370
601
725
426
331
488
719
599
281
435
620
661
302
396
567
787
471
313
496
703
552
281
420
682
660
329
368
632
740
426
306
498
696
588
272
450
627
658
341
353
558
731
401
360
487
758
566
269
447
593
650
320
387
583
705
444
333
494
767
497
401
420
614
643
318
393
580
726
374
322
525
751
544
277
455
629
677
333
353
623
757
361
314
524
730
536
293
451
607
674
323
388
580
731
416
298
511
687
472
361
462
609
630
349
387
573
726
400
312
512
710
594
280
442
643
684
287
383
603
725
428
305
493
761
507
286
459
601
670
300
383
641
714
378
325
539
734
494
339
443
610
684
278
449
578
700
409
331
518
717
500
337
416
685
631
284
368
617
716
388
347
501
738
523
281
444
629
665
317
400
613
794
362
284
597
747
500
305
456
658
630
317
380
617
717
388
348
532
739
512
312
458
637
653
317
406
646
726
387
304
546
733
489
324
487
665
627
298
413
628
713
367
290
582
730
509
264
520
664
606
305
390
626
728
384
302
568
741
520
294
490
660
655
276
431
602
701
368
366
538
743
495
274
470
663
637
256
444
552
792
350
320
529
730
524
244
463
660
659
293
379
606
755
346
302
548
763
456
278
527
677
687
231
429
615
708
330
400
536
794
514
287
471
687
645
277
402
582
733
341
325
532
768
506
247
529
661
627
287
384
650
675
417
341
548
710
515
294
471
686
643
276
406
674
686
322
342
513
791
480
275
527
675
626
299
406
608
709
349
343
596
736
479
324
495
657
646
290
387
602
767
359
357
552
775
490
270
505
651
688
291
395
623
722
324
309
595
777
461
305
456
658
654
275
414
657
684
366
313
558
760
445
346
509
663
624
269
458
611
682
361
345
586
725
504
289
492
680
680
266
459
631
722
285
401
580
754
486
307
502
671
692
254
429
636
684
313
287
626
762
477
334
481
687
599
280
391
640
695
288
425
576
759
498
303
487
645
650
273
427
638
683
364
324
542
773
507
263
529
669
649
293
399
618
684
331
277
683
755
443
318
524
652
599
280
423
648
685
329
337
570
747
452
298
473
716
645
225
414
642
677
336
352
581
779
451
277
516
685
603
283
481
639
672
327
331
579
766
464
287
490
730
595
239
461
614
686
299
363
574
760
454
308
472
739
626
254
413
566
729
366
310
573
764
433
333
493
682
605
290
455
621
665
372
379
553
773
469
263
522
710
585
219
453
644
667
342
352
564
817
403
294
524
687
590
307
427
586
674
412
327
532
817
426
325
510
704
544
288
402
683
683
328
310
594
764
420
231
526
710
539
393
417
663
661
290
368
564
739
467
320
496
673
618
329
418
636
681
306
348
562
756
408
341
464
734
531
368
400
684
655
370
316
584
755
455
305
526
724
554
325
436
632
670
335
370
590
720
462
292
489
707
600
277
422
681
677
305
328
647
756
428
318
521
727
538
259
452
658
684
347
384
569
762
454
291
522
724
567
268
451
635
640
336
370
585
693
441
308
513
694
585
232
486
601
673
390
344
574
779
418
310
427
791
547
278
426
602
658
374
316
615
759
420
305
511
717
566
275
433
652
653
323
379
585
763
446
301
539
726
580
293
446
598
645
390
370
568
754
409
312
520
719
556
298
425
641
662
328
370
542
815
352
379
505
764
571
250
429
613
620
351
363
583
722
443
297
495
772
537
278
454
625
643
350
373
591
740
382
310
469
781
562
274
436
646
616
366
380
575
753
407
288
528
724
519
306
489
638
640
329
430
564
712
423
290
547
745
544
277
435
651
656
350
330
603
756
395
306
545
685
557
299
425
663
626
358
351
599
728
396
314
524
738
526
295
412
665
635
357
355
593
752
402
306
535
742
552
277
463
625
670
315
369
627
724
372
312
532
751
528
257
490
654
663
341
383
615
714
387
319
556
745
523
285
438
645
608
363
407
576
772
379
298
535
740
520
305
477
650
651
301
384
624
716
349
350
542
739
521
295
429
663
639
301
406
554
779
368
322
514
749
515
292
454
605
674
279
393
638
724
371
327
506
781
502
310
463
663
628
306
379
588
805
380
324
520
750
511
292
467
656
625
311
372
624
767
371
332
538
741
512
281
464
654
651
298
383
613
719
383
322
540
740
516
286
428
665
682
306
387
620
659
490
287
547
748
546
288
456
629
615
288
436
607
706
371
345
546
706
504
302
457
685
624
269
440
588
732
350
360
547
746
500
283
458
670
651
288
397
614
727
323
366
546
720
543
292
471
624
687
269
397
596
770
349
324
562
731
538
307
462
667
627
258
389
619
695
415
309
552
730
492
282
517
644
647
302
445
595
695
381
312
557
749
497
288
488
671
646
275
403
611
717
366
337
546
742
504
291
474
665
673
259
422
619
683
355
333
538
739
497
271
495
662
663
290
376
651
681
343
334
559
748
499
284
458
666
641
308
388
621
686
364
333
565
729
565
292
494
654
651
298
391
618
705
361
315
564
784
489
344
481
651
629
288
394
682
733
340
321
533
737
511
315
440
687
685
269
397
635
719
351
323
546
746
505
306
482
659
623
320
409
616
764
337
321
571
726
506
305
480
668
680
285
383
646
712
371
327
541
781
490
285
519
667
640
309
394
612
756
352
335
564
731
476
298
478
677
679
283
404
596
725
341
337
553
734
503
312
479
658
653
291
394
643
736
308
364
588
733
486
310
477
674
653
286
407
626
694
366
326
553
757
467
