CH1
587
722
423
247
599
728
593
387
449
502
820
282
395
528
748
410
290
500
755
614
300
453
602
684
296
415
553
701
439
326
474
754
579
297
460
558
685
339
373
510
709
379
363
512
744
589
295
494
582
685
302
409
552
754
426
324
464
768
559
331
426
617
719
322
356
544
684
435
316
504
753
582
293
436
636
793
265
397
540
708
446
330
446
775
586
303
417
614
677
317
412
483
712
429
274
464
797
517
297
469
578
735
286
351
527
684
438
337
483
713
626
302
416
648
680
299
353
457
709
453
349
444
794
495
324
426
643
702
322
338
486
692
443
316
537
747
513
353
464
663
629
394
352
492
663
410
371
562
733
504
378
427
641
628
322
338
513
661
434
339
525
771
462
374
456
652
634
340
354
522
680
451
341
528
706
497
321
438
678
658
339
340
494
685
468
343
498
750
498
299
395
683
656
342
358
536
680
445
377
521
721
489
302
447
737
586
394
387
527
689
368
327
539
759
472
293
456
675
638
338
432
553
674
372
415
495
692
470
307
428
685
624
374
406
488
731
363
382
466
757
486
284
486
658
613
376
393
536
685
359
342
505
722
510
304
472
662
667
309
429
533
724
352
361
529
707
462
337
444
688
591
405
417
520
755
364
344
500
714
482
287
464
663
664
380
348
532
753
344
392
509
733
454
294
481
682
638
346
414
525
754
338
343
495
897
427
308
523
730
588
320
418
540
775
357
371
492
783
410
350
487
676
624
352
416
526
780
312
368
532
760
405
313
544
685
647
327
439
556
743
325
391
513
728
389
370
488
716
530
393
443
505
753
360
367
538
701
492
296
489
733
640
288
478
573
686
302
398
536
701
428
361
487
721
602
313
438
547
684
375
373
554
719
422
332
510
716
639
313
390
621
686
317
360
586
720
385
335
506
687
621
317
423
599
665
311
400
525
686
457
323
511
732
511
318
445
653
658
298
433
544
626
428
336
508
725
539
309
438
648
656
355
426
514
667
467
332
491
710
533
323
426
668
674
336
362
555
693
451
324
496
734
494
312
505
606
673
325
380
527
680
458
337
519
730
501
288
459
637
719
289
343
463
741
426
280
589
742
502
277
474
641
700
287
431
501
685
404
339
562
733
490
315
399
739
632
301
400
480
760
402
327
515
773
487
274
434
653
728
339
381
538
754
404
320
512
768
496
294
447
685
627
288
535
524
661
437
352
569
714
444
435
463
666
671
299
399
532
663
394
396
534
722
491
272
478
741
621
342
397
552
685
331
346
574
740
481
273
439
729
599
336
391
574
686
355
370
495
740
458
311
475
698
648
321
381
596
666
378
372
529
734
481
297
486
684
641
325
475
563
672
295
404
505
774
428
273
472
739
562
326
434
568
687
359
308
581
750
445
293
524
654
665
317
453
588
722
326
386
538
686
463
278
487
723
623
349
441
548
690
356
415
520
736
445
292
489
688
627
348
425
590
734
293
367
564
713
455
305
523
685
604
355
393
598
768
314
389
562
718
428
293
473
740
582
321
451
536
737
243
413
576
714
465
331
540
688
535
332
456
539
785
311
378
544
714
357
336
524
739
586
289
476
585
671
320
352
561
724
407
292
495
794
545
303
454
595
654
374
412
546
717
379
389
435
769
572
331
500
591
676
345
380
536
727
416
350
521
682
563
329
451
598
693
300
386
520
709
385
329
494
753
563
312
412
662
674
301
385
549
709
417
325
563
702
564
322
409
669
631
322
469
485
667
474
319
438
812
503
308
463
655
662
320
361
463
740
434
328
488
736
560
293
434
595
762
306
397
513
685
405
360
495
728
532
351
472
629
681
347
384
525
683
368
396
529
714
480
350
452
666
646
322
396
548
684
431
336
501
714
563
281
518
685
630
299
407
528
667
423
370
519
741
466
377
400
686
674
324
370
539
672
400
312
534
743
489
301
462
672
591
318
384
560
687
379
334
531
741
504
277
463
657
631
343
414
522
720
338
360
561
706
496
313
469
651
610
329
422
562
674
375
423
534
763
459
295
485
678
612
382
427
563
713
338
380
506
708
476
277
544
667
625
331
400
568
685
330
378
555
705
477
316
458
758
588
372
443
498
740
342
356
567
686
420
349
457
724
595
380
418
534
732
327
373
557
709
429
328
456
722
583
399
427
486
826
325
344
540
698
451
304
485
709
604
341
447
562
720
333
375
552
738
425
284
536
668
592
324
487
561
720
325
349
553
714
396
340
525
706
583
327
433
539
684
412
368
530
732
461
284
398
848
617
282
496
618
673
306
395
521
741
414
329
488
704
611
283
449
604
668
314
388
543
677
468
340
506
751
543
287
500
598
652
353
397
504
686
428
363
485
778
550
289
452
600
675
307
409
490
731
369
386
530
732
535
319
445
631
671
312
397
508
688
427
318
517
754
515
331
431
687
640
374
406
492
678
408
332
528
712
537
323
426
657
613
373
372
485
687
437
350
532
748
483
284
447
679
592
353
395
530
677
402
342
551
778
413
347
470
641
629
344
382
523
685
456
343
533
737
469
342
437
677
647
360
364
501
685
469
247
652
716
447
366
481
712
587
310
447
484
644
418
308
592
749
449
326
463
683
589
337
410
535
723
350
351
615
723
438
351
513
664
563
361
405
580
674
386
354
536
728
460
312
481
666
604
349
417
569
663
411
418
530
724
434
334
486
680
588
358
430
553
687
342
391
535
740
414
284
502
676
617
393
410
522
743
329
388
517
725
488
292
459
684
606
355
399
543
760
315
376
549
694
424
342
491
662
685
355
375
580
734
304
411
554
695
420
322
523
686
567
376
425
551
704
359
407
548
710
443
307
505
702
575
309
456
574
728
363
387
564
721
364
389
522
688
576
345
456
572
685
298
441
567
728
382
336
500
742
552
304
463
633
662
373
395
551
693
444
380
521
729
576
315
436
599
683
329
387
545
628
481
319
462
766
554
317
405
594
682
352
377
521
658
457
307
507
742
580
320
449
620
640
333
410
492
704
436
335
545
750
476
394
423
605
668
330
335
498
725
392
344
491
771
551
303
497
682
642
325
352
498
686
444
347
537
741
485
334
393
725
620
354
393
544
686
374
362
518
734
498
316
483
678
599
333
346
570
688
385
400
490
758
428
322
450
675
632
373
343
549
661
422
328
568
756
450
282
472
683
629
315
413
547
674
401
351
581
723
466
302
527
676
623
299
449
564
685
368
360
550
739
450
290
477
687
595
351
415
566
656
427
346
532
754
448
316
456
655
653
314
442
559
731
339
350
520
723
473
253
565
704
597
354
399
583
725
352
405
520
735
419
277
493
779
594
352
428
542
736
315
391
552
736
417
313
524
675
583
338
436
607
735
318
407
535
711
400
302
503
678
628
353
471
540
752
330
384
538
721
375
321
545
716
614
334
431
574
704
321
380
581
739
395
322
471
712
593
315
490
591
704
303
363
566
685
442
333
548
686
602
267
487
562
710
342
364
516
720
437
357
521
781
580
349
429
593
680
262
413
574
685
450
349
469
715
544
296
487
626
660
350
412
534
678
488
333
522
726
561
299
453
657
628
356
370
549
685
407
327
537
738
541
302
418
646
644
325
358
531
704
406
357
540
739
554
320
445
598
714
346
367
483
685
479
285
539
737
517
306
430
674
652
345
381
504
685
387
422
452
766
525
311
437
687
638
322
379
494
686
421
345
494
728
547
301
479
669
655
320
399
519
678
371
381
536
745
459
312
501
618
604
329
422
552
676
420
398
490
758
444
363
441
685
622
302
360
580
684
409
358
538
719
455
308
446
669
686
337
388
514
702
388
339
541
729
449
294
459
681
616
365
404
565
763
401
394
545
731
429
294
479
675
621
365
426
552
685
345
344
552
721
497
296
504
679
657
342
398
576
721
351
354
440
785
485
297
471
691
627
345
412
533
758
367
342
538
722
433
323
478
738
576
412
410
546
767
346
401
498
737
397
282
501
686
603
312
456
545
743
330
376
529
722
461
303
509
687
658
335
396
525
752
320
406
551
684
450
264
559
686
573
321
405
591
749
277
446
557
728
378
333
489
712
631
317
449
550
722
355
393
504
706
484
324
487
737
644
273
443
560
715
316
412
543
711
402
348
494
734
589
304
436
582
679
355
383
538
733
424
359
463
777
640
299
454
617
643
341
393
512
739
430
315
523
707
593
329
442
625
672
327
335
533
719
421
306
548
729
504
315
410
578
644
398
343
544
737
429
338
504
751
495
309
518
640
643
311
420
492
676
409
363
516
730
414
364
473
615
686
338
382
503
683
408
353
526
793
472
315
413
681
609
313
383
522
684
402
338
506
726
469
336
391
720
681
298
365
562
658
402
344
520
765
450
352
492
658
636
292
412
503
687
404
348
485
750
468
301
432
735
677
322
408
543
682
382
345
521
716
504
311
428
680
640
355
408
555
672
385
336
515
724
450
350
499
675
616
319
412
578
685
331
333
572
775
463
317
460
679
633
316
399
544
738
354
350
540
748
457
293
471
680
633
331
435
547
737
362
372
539
726
478
309
483
683
592
389
366
562
710
317
406
546
710
465
306
480
682
587
435
427
534
747
353
389
521
724
438
322
492
745
592
344
460
520
736
318
395
536
744
488
314
498
686
605
384
403
535
783
334
379
543
702
432
327
465
686
669
359
426
541
774
297
407
575
704
437
313
499
684
540
359
435
525
759
327
343
554
744
433
323
484
750
559
343
422
570
672
322
361
571
707
466
344
482
735
565
327
449
588
712
275
357
525
720
421
322
511
715
548
299
410
615
684
332
363
484
724
429
328
504
736
622
293
413
599
702
313
386
476
772
476
300
541
728
559
305
445
580
674
348
383
457
725
448
320
527
749
523
293
505
624
657
338
395
496
684
437
304
524
726
564
316
443
646
658
362
346
525
729
426
350
500
707
520
355
474
668
690
365
358
483
730
437
298
547
713
550
306
443
667
654
337
366
493
675
464
344
531
715
554
303
433
683
648
287
375
547
685
450
328
510
735
532
314
421
686
632
342
320
522
649
472
312
511
764
510
308
421
682
596
350
383
554
675
396
323
519
783
473
302
490
683
590
343
379
550
681
380
334
509
775
472
330
463
659
646
360
377
563
713
364
355
488
741
483
281
478
710
607
359
387
541
698
379
351
513
754
454
265
463
668
599
372
429
546
725
337
357
533
742
421
318
481
673
623
347
414
538
744
375
406
513
754
437
299
462
685
664
353
404
552
752
336
394
507
750
423
310
482
704
599
350
419
513
783
341
376
520
733
412
311
500
719
617
322
392
524
749
318
368
538
722
497
299
503
709
612
342
394
545
749
333
388
533
690
475
316
470
746
566
347
437
579
753
360
349
518
775
397
321
533
706
619
333
444
560
715
319
400
537
704
421
342
513
695
572
363
446
587
732
327
357
527
685
433
300
508
752
574
278
429
647
693
315
412
532
693
434
289
509
748
533
318
455
596
671
347
384
498
689
456
289
556
722
565
332
459
624
670
316
347
536
724
429
294
512
752
533
274
391
682
675
331
371
502
686
434
330
511
742
549
324
436
619
653
321
414
503
694
447
352
479
737
513
315
471
647
685
370
332
437
734
424
306
539
731
560
317
439
623
694
331
336
541
685
429
389
529
725
510
374
440
662
616
421
371
482
679
395
407
516
724
492
339
484
645
606
335
384
523
686
413
333
513
766
523
289
404
679
708
306
369
538
675
444
319
549
689
582
309
439
676
681
327
395
515
687
420
399
502
757
492
311
420
664
653
329
406
555
714
355
360
510
748
453
278
455
685
684
326
425
537
724
357
353
548
752
467
301
463
676
590
373
418
533
773
352
333
551
692
453
364
460
660
707
341
407
546
727
403
346
511
752
474
302
471
665
618
374
411
560
689
404
375
528
715
444
343
455
683
615
361
374
588
762
339
377
561
723
462
269
473
752
594
361
461
535
751
329
386
538
711
431
339
452
686
661
351
401
540
732
356
402
502
766
482
312
500
685
687
300
444
545
746
313
374
510
747
427
281
488
716
625
307
422
570
738
300
374
527
708
485
304
482
712
661
310
419
540
723
347
348
539
727
414
295
516
735
639
310
433
620
667
326
430
558
688
428
360
539
721
599
284
445
580
682
322
377
528
661
453
335
489
723
545
372
425
556
684
326
362
511
705
443
320
497
746
580
278
477
616
640
363
373
460
674
469
321
521
730
531
328
423
636
677
332
385
493
668
429
327
558
742
494
356
449
635
633
328
405
530
685
428
324
557
713
481
322
466
675
635
301
397
516
653
432
358
546
724
521
307
472
655
627
322
408
523
686
421
314
542
730
432
365
497
667
613
341
394
497
652
409
370
557
730
495
321
456
686
609
336
376
531
675
415
381
539
761
439
381
431
666
629
299
363
600
645
402
377
553
741
452
331
473
716
621
334
411
522
686
353
371
509
793
484
300
450
731
603
352
325
590
706
355
349
569
686
487
295
485
657
643
304
437
560
688
354
379
534
724
402
346
523
678
641
349
445
534
712
338
380
535
739
423
306
492
663
679
348
414
570
729
318
352
585
753
430
347
508
653
596
329
441
569
717
364
397
550
724
402
314
485
689
597
348
434
593
685
313
394
557
701
447
308
491
731
619
349
420
515
735
397
364
550
732
420
327
474
686
600
313
502
535
685
342
405
570
688
397
337
507
689
573
345
425
611
725
304
407
545
699
427
320
512
687
615
331
449
515
715
343
393
543
721
426
296
556
686
578
335
445
609
678
307
389
547
698
438
358
505
723
564
320
472
646
648
349
368
506
697
471
317
520
743
546
309
410
553
686
330
375
491
710
421
316
516
745
551
300
455
622
674
320
403
507
684
448
375
533
751
601
231
482
618
641
327
334
588
708
316
365
506
735
530
284
487
613
637
305
367
501
701
455
338
516
724
488
334
420
677
660
354
391
486
682
441
308
540
722
524
298
516
653
645
321
423
483
685
426
352
526
741
494
283
451
664
648
292
423
511
728
472
290
582
727
505
303
393
705
645
297
416
512
709
389
366
565
722
451
372
528
670
611
355
384
523
685
404
373
532
753
490
288
466
683
651
322
371
524
687
387
394
514
695
485
291
469
685
643
319
388
519
644
452
366
511
690
598
328
415
683
634
332
399
512
733
331
485
469
757
487
302
491
666
624
322
404
550
664
347
373
577
732
454
302
492
684
565
360
404
573
655
318
363
549
730
489
359
448
660
568
387
390
568
761
297
401
534
734
446
312
479
703
575
377
435
578
675
314
388
530
752
481
312
503
677
585
340
434
512
753
333
371
533
727
440
320
477
683
662
352
449
502
757
356
357
573
725
493
267
477
682
632
317
449
583
694
330
407
489
735
377
437
511
682
574
338
429
564
714
316
384
603
701
387
421
507
684
577
350
429
533
748
295
404
575
709
451
305
552
688
550
337
442
575
726
294
467
535
685
398
397
536
640
649
301
456
562
694
281
491
537
684
472
277
582
685
611
303
443
586
685
317
375
570
653
447
324
540
711
577
296
472
561
731
303
418
528
669
469
329
507
753
546
313
484
613
600
407
433
521
675
513
299
559
739
490
286
543
568
658
324
409
541
703
432
353
513
721
588
238
438
626
718
356
366
564
686
411
301
455
779
584
337
434
609
656
311
430
505
716
458
356
535
708
532
327
474
631
638
329
365
495
716
438
291
546
725
477
324
453
650
677
333
365
459
732
400
390
577
721
517
315
409
663
660
322
380
493
710
411
337
518
749
506
341
462
610
722
312
366
515
696
423
291
568
770
446
312
399
678
612
321
381
530
687
449
324
490
769
504
280
471
684
631
343
369
511
666
450
385
504
745
484
326
478
672
638
307
374
515
723
363
465
539
739
445
286
457
701
623
304
389
599
656
400
331
546
748
454
338
446
651
676
345
362
485
766
417
353
562
736
484
272
476
662
590
364
416
546
689
361
298
448
858
504
293
441
724
576
322
410
551
667
389
352
527
750
473
298
476
687
567
387
444
552
713
347
356
534
718
490
323
452
674
599
388
468
532
723
358
395
525
700
447
283
463
725
622
337
456
548
684
339
357
512
779
453
354
496
685
604
355
462
525
774
343
386
546
712
481
291
481
685
608
341
406
571
787
319
390
538
721
450
315
472
699
647
367
407
553
774
341
386
547
720
397
296
480
684
588
380
461
563
697
324
445
544
682
426
290
516
687
576
383
408
575
760
276
406
563
708
454
283
508
728
575
337
434
569
752
343
365
527
734
435
299
558
708
545
332
362
591
748
311
384
563
714
392
288
559
741
545
353
440
577
732
297
388
584
720
402
321
495
737
539
321
467
590
688
299
328
645
709
407
349
566
723
564
327
433
577
684
326
363
517
724
409
386
480
738
550
297
439
611
644
327
451
550
687
436
301
618
686
502
321
437
601
695
292
382
535
702
430
332
537
769
545
319
474
601
656
356
384
525
736
448
338
500
709
492
354
465
649
661
337
356
524
701
413
325
541
752
550
296
437
609
677
291
331
574
671
393
376
518
743
509
393
429
646
624
331
373
503
685
422
356
533
733
511
291
394
767
684
317
386
513
685
366
299
573
732
561
324
429
645
643
317
341
576
684
414
353
518
739
492
316
428
644
758
302
385
539
685
425
322
502
718
529
310
445
663
647
334
346
495
666
437
369
513
728
533
343
441
665
596
341
399
499
672
429
366
503
758
491
288
476
674
658
336
337
506
731
459
304
584
720
526
291
431
684
687
311
390
532
688
408
352
508
738
493
299
408
684
631
356
375
600
684
416
299
502
763
487
286
487
686
599
299
357
566
684
371
410
533
706
465
322
485
673
652
362
369
535
668
396
399
504
805
471
290
453
662
672
342
401
513
755
346
352
536
730
480
271
424
638
648
380
426
542
727
259
437
497
758
456
327
464
680
547
387
422
558
720
308
384
521
709
451
310
519
685
609
359
383
607
687
364
353
530
737
451
273
476
683
634
358
422
542
720
363
371
529
740
434
300
485
666
606
351
456
564
715
342
366
522
700
447
351
480
681
629
345
408
517
749
367
389
555
705
418
361
468
680
614
381
417
535
758
297
360
560
718
440
313
492
684
642
339
450
579
752
329
360
522
728
442
290
494
720
659
338
448
546
742
321
365
584
698
414
373
457
676
584
353
442
522
783
319
433
501
720
398
367
448
720
643
325
427
567
725
339
404
567
743
400
340
474
680
667
340
425
569
715
379
355
508
738
457
304
482
682
663
328
430
538
748
332
314
552
732
475
358
514
743
521
304
561
552
740
349
386
567
721
388
230
611
737
573
285
478
582
735
284
451
460
759
399
310
518
688
639
279
392
644
629
373
382
488
765
371
310
554
739
565
356
348
682
638
340
359
554
715
425
303
478
790
514
387
458
658
639
379
388
521
678
421
323
540
700
594
318
351
777
685
266
380
585
704
414
299
511
735
528
278
481
592
646
414
382
460
684
506
384
480
735
552
310
415
634
646
377
325
537
731
352
357
523
752
527
289
382
688
670
309
391
473
760
400
335
505
747
475
330
409
684
657
338
376
506
659
421
374
523
771
506
283
450
673
628
395
321
464
755
398
283
498
861
494
295
474
664
667
304
375
530
683
451
361
488
732
499
331
395
760
654
282
381
513
685
403
303
518
780
485
316
457
663
669
299
446
468
682
469
347
527
753
498
290
389
687
656
308
366
567
676
431
329
527
737
408
417
415
688
651
337
378
506
683
403
369
541
730
469
324
440
820
604
323
397
581
682
343
358
538
761
464
315
470
665
670
357
405
542
736
363
365
545
684
585
290
428
708
596
284
501
532
674
361
440
508
701
488
270
495
676
596
340
365
561
757
386
373
541
752
430
313
474
681
608
348
418
564
687
346
374
544
728
444
319
497
685
599
334
448
508
839
302
332
513
770
444
282
480
684
607
330
430
608
721
312
366
533
798
416
304
487
723
548
367
409
600
672
372
402
511
700
485
327
411
686
601
358
422
534
773
317
368
513
733
464
274
505
689
584
377
379
591
691
333
379
555
716
425
318
516
662
592
369
399
548
742
327
350
582
717
424
338
487
672
676
352
440
575
718
337
309
564
776
413
338
497
696
560
356
426
570
742
321
383
522
752
406
302
537
677
647
327
456
586
740
324
398
551
695
420
298
473
811
561
374
411
562
717
318
373
582
698
412
313
487
722
596
293
498
625
725
312
390
546
706
456
350
491
747
641
304
435
560
712
311
420
547
715
413
290
541
717
544
389
457
577
685
312
350
522
730
380
294
516
757
554
273
482
586
705
323
404
534
732
446
308
502
742
537
331
433
606
685
323
383
541
723
425
320
541
707
561
322
459
628
680
231
419
585
674
404
348
518
720
539
266
488
654
656
308
366
544
686
470
307
506
727
561
293
458
657
663
325
381
534
690
390
338
530
762
470
320
453
651
622
336
391
524
685
450
347
550
724
457
312
466
623
673
332
409
503
675
417
334
545
789
485
356
464
667
617
366
373
496
686
426
332
504
717
497
352
460
647
643
318
404
525
679
385
323
572
685
517
330
471
682
590
298
399
528
671
398
417
525
716
456
363
482
671
570
357
348
566
624
524
305
557
728
479
300
459
663
565
376
466
494
685
475
328
510
687
477
297
485
689
598
313
404
571
686
409
327
552
717
468
289
536
686
576
321
381
567
646
437
356
499
750
470
302
428
735
596
305
419
564
632
392
371
532
703
526
299
471
685
616
315
383
588
687
327
374
527
716
425
315
473
685
585
330
412
635
647
364
377
493
788
435
340
493
690
644
324
432
560
708
340
355
524
730
431
318
496
649
666
323
429
596
694
292
382
601
707
440
309
474
698
569
381
442
574
691
352
358
485
849
416
308
516
675
577
334
442
578
722
344
389
532
711
435
354
474
684
623
317
467
596
724
313
397
550
727
411
313
511
694
579
323
444
574
736
316
384
563
727
391
335
523
689
589
385
428
562
765
321
382
542
734
471
284
523
670
606
318
481
566
729
316
400
556
695
393
370
455
789
602
311
462
589
686
281
397
583
721
394
373
514
687
532
336
440
591
737
318
411
503
757
412
296
570
683
557
340
438
641
683
315
423
551
687
420
316
500
744
563
323
439
609
690
311
392
572
709
408
326
544
707
510
343
479
571
721
331
364
525
736
426
334
524
761
539
298
445
640
688
303
406
545
724
384
353
506
767
553
330
430
576
686
316
415
550
700
424
347
516
722
539
311
420
621
680
384
393
543
689
453
306
500
739
536
314
444
614
650
322
395
515
726
392
334
496
792
509
302
462
621
653
315
403
540
687
413
310
541
700
493
318
472
608
654
317
372
533
684
400
365
509
687
550
349
428
666
664
327
339
526
713
417
355
506
683
542
301
468
655
665
303
382
518
678
420
358
507
685
546
335
455
677
624
333
383
502
683
414
368
519
725
519
320
466
672
626
340
402
527
678
456
337
529
723
485
345
454
686
582
318
405
550
660
438
345
546
737
485
305
468
663
652
297
402
539
678
408
363
542
746
467
314
467
705
579
316
371
557
692
370
344
546
722
527
320
423
684
666
304
395
572
683
392
358
556
743
475
328
441
674
640
326
425
544
653
404
384
532
697
454
308
478
685
599
334
420
556
677
404
367
535
752
446
322
460
716
576
391
392
541
717
356
364
532
735
445
318
473
686
602
351
420
565
685
369
348
575
701
446
319
481
685
609
364
410
576
684
342
364
550
736
440
311
466
664
605
349
437
568
735
360
370
552
718
470
283
522
686
618
347
469
554
726
312
379
553
709
418
323
502
679
588
341
455
547
721
316
391
600
705
455
298
486
685
636
327
457
559
726
351
369
556
741
406
276
522
686
585
360
412
568
737
337
379
570
719
411
304
532
728
603
370
379
607
745
312
369
573
704
425
286
536
760
549
321
450
571
708
335
377
541
725
435
323
510
730
540
356
476
553
737
331
401
577
703
386
336
524
711
545
324
458
595
692
323
406
549
718
402
325
515
726
598
308
468
575
676
348
409
532
703
437
309
517
722
562
314
459
587
692
311
386
588
735
402
349
489
753
543
313
473
581
687
311
385
590
725
389
373
540
737
521
309
458
623
652
325
401
556
670
441
325
518
747
609
330
423
608
656
335
387
534
704
447
322
502
754
504
299
475
610
679
302
412
552
686
403
339
534
725
512
311
473
640
632
366
385
522
679
437
335
541
744
505
332
442
671
645
332
400
556
669
444
333
523
739
496
333
453
623
678
324
398
515
671
410
341
554
738
497
323
470
660
635
325
406
532
687
389
375
531
740
495
331
463
679
626
312
380
547
670
391
341
572
746
464
314
485
675
626
345
374
566
686
376
346
525
731
466
306
437
709
611
336
357
550
669
409
357
536
766
486
283
470
709
610
276
398
587
676
377
371
549
715
464
307
488
668
594
327
412
491
667
347
420
553
719
438
356
478
670
595
319
420
564
649
376
367
552
711
434
262
486
686
605
350
442
533
674
363
338
533
725
489
313
455
686
591
328
416
571
685
323
393
546
726
429
323
506
655
660
310
449
595
685
311
368
585
717
459
334
496
682
578
335
431
584
685
330
380
560
722
438
314
494
722
584
377
416
543
750
355
344
535
774
464
301
464
686
611
346
445
559
729
309
394
551
725
411
335
482
686
572
340
484
584
688
358
365
569
705
451
353
474
677
566
363
461
600
729
322
385
553
714
422
324
500
674
628
333
446
548
742
324
394
534
720
422
320
492
724
598
332
440
554
729
323
398
566
739
403
347
503
712
561
373
446
564
725
321
370
543
722
396
340
530
716
549
345
480
549
722
342
383
567
700
396
335
520
712
569
309
469
572
701
333
404
538
702
403
337
500
704
584
321
474
550
753
344
382
579
682
415
296
519
712
592
293
464
621
670
290
405
612
669
400
331
548
719
552
308
463
590
683
323
403
623
706
446
308
545
761
556
300
495
621
687
282
407
546
685
433
321
505
765
577
301
446
631
683
297
365
595
684
418
348
492
735
520
305
500
622
644
334
376
524
732
400
330
526
749
519
304
395
768
625
320
409
542
682
384
340
537
732
502
336
471
638
649
328
402
512
703
438
334
558
750
507
365
447
630
671
333
375
477
674
468
339
519
748
504
299
480
648
646
317
370
575
681
414
355
564
728
459
313
456
635
647
327
410
519
678
429
360
507
710
522
347
467
686
611
327
385
511
686
388
388
516
720
458
352
414
687
616
324
413
506
667
400
386
508
781
490
304
455
675
607
322
388
554
674
396
353
537
712
493
305
457
675
658
287
431
554
679
395
356
536
732
478
312
473
694
590
322
417
558
681
369
389
510
725
483
340
461
685
625
305
400
555
687
360
383
549
728
450
318
468
685
620
301
484
531
687
365
362
537
743
438
315
475
686
606
360
421
559
692
340
378
504
754
459
313
501
683
579
380
411
576
660
387
387
554
730
436
309
501
686
572
345
436
556
713
335
381
549
726
430
307
477
665
609
382
411
571
759
327
391
544
725
446
309
487
683
611
362
411
555
769
308
369
574
723
440
287
507
686
587
356
438
563
760
284
386
527
775
421
328
545
721
552
357
448
569
733
313
399
601
706
391
311
554
687
591
345
467
567
731
321
389
568
691
412
348
489
715
610
338
442
561
734
310
380
556
740
432
296
547
718
568
333
471
574
721
300
391
545
730
408
330
533
714
565
318
466
600
697
279
390
589
702
384
353
527
744
556
320
459
580
686
319
400
566
714
420
327
506
721
571
320
464
593
685
311
386
572
709
417
338
520
725
536
317
459
638
665
331
434
576
685
409
334
528
748
538
322
462
627
669
293
380
588
693
398
343
538
759
504
310
481
627
649
312
383
546
720
407
336
513
740
566
311
456
623
678
305
384
539
711
395
380
517
708
540
334
463
616
652
319
390
510
693
420
316
541
733
504
354
452
637
673
323
380
535
687
410
358
522
721
534
296
459
664
663
314
401
513
684
432
363
508
743
520
317
450
686
639
328
369
486
690
432
339
529
732
509
314
455
677
619
323
374
549
679
432
358
545
730
486
315
458
685
631
340
377
554
668
427
355
554
724
492
331
481
685
603
320
395
530
685
377
362
545
744
469
325
459
678
616
327
419
539
683
403
357
585
726
462
315
446
728
624
313
444
545
678
361
371
550
745
460
311
465
720
596
331
393
610
682
354
375
549
717
486
303
485
719
651
279
434
546
662
369
326
520
758
505
295
473
684
624
323
408
592
684
328
388
550
717
463
312
472
707
606
339
450
595
684
307
371
541
709
442
318
490
687
579
341
433
584
688
265
446
518
742
430
347
490
679
618
346
434
565
735
335
380
531
740
419
297
481
706
590
326
455
568
725
322
375
588
717
418
359
513
699
575
343
428
591
743
332
392
551
731
399
294
514
712
618
333
461
571
741
312
404
548
712
423
326
502
702
580
360
431
563
750
312
370
530
758
426
305
536
684
565
334
441
593
730
326
399
518
740
415
330
512
739
568
344
441
582
730
320
342
591
737
424
314
534
716
564
312
441
572
751
319
394
536
714
397
356
503
709
595
310
474
566
686
309
411
513
733
450
313
466
778
596
336
448
582
686
347
340
545
711
389
339
504
730
555
356
446
582
682
316
407
544
683
436
335
501
734
594
300
448
603
662
370
364
537
731
389
335
556
707
553
307
454
615
648
316
393
531
721
419
316
537
738
541
329
422
605
684
356
358
516
720
392
355
513
740
505
313
464
613
661
319
378
517
685
413
387
536
733
487
343
461
649
615
398
349
530
685
373
404
529
726
502
342
450
645
637
328
407
506
685
412
344
531
734
463
316
485
640
604
324
431
496
648
500
353
471
755
496
311
440
716
637
349
347
588
658
425
392
529
720
490
255
493
667
651
307
397
550
686
364
345
603
733
478
307
465
680
648
324
375
551
670
374
358
609
697
456
332
498
685
589
306
371
567
682
369
372
512
703
528
323
424
687
670
254
414
523
743
333
344
546
731
464
292
507
700
612
329
377
577
679
368
374
567
735
460
300
480
707
594
363
404
577
670
347
375
553
686
470
329
459
706
596
347
432
560
719
341
332
577
761
396
340
464
683
628
358
424
570
704
346
392
539
723
436
331
533
663
628
359
463
558
686
318
322
602
719
428
347
500
688
579
374
447
540
733
314
395
525
732
438
294
475
692
592
439
433
550
735
361
341
495
730
444
280
524
718
570
363
462
589
733
327
396
557
686
485
306
503
714
627
316
448
536
730
321
465
528
721
455
328
512
685
599
326
441
544
719
350
359
594
724
421
310
504
686
584
345
468
550
750
316
364
567
733
416
335
521
718
583
331
419
561
696
378
442
547
686
455
320
514
713
598
320
437
567
670
310
422
520
661
486
324
463
768
614
286
456
584
686
295
414
561
695
422
307
510
740
555
300
402
659
642
374
361
551
664
465
302
520
717
563
311
434
622
651
323
389
516
720
436
312
507
795
532
327
445
621
677
327
384
509
716
426
377
488
732
595
310
415
640
657
306
376
532
687
419
308
538
681
563
270
454
647
640
321
378
482
689
403
357
511
747
489
311
486
657
643
306
355
543
679
435
330
517
829
506
304
436
686
610
318
356
532
685
432
391
479
742
509
317
415
650
619
314
386
535
679
409
326
498
720
529
277
472
660
624
372
375
493
686
424
349
530
739
497
307
487
653
605
339
358
549
682
425
339
513
755
514
274
498
700
619
287
397
558
685
408
332
510
808
441
285
520
663
625
345
375
510
678
418
338
533
756
486
303
488
687
600
376
405
520
686
367
388
502
737
500
303
470
695
599
336
403
524
744
334
352
532
744
475
256
477
683
634
340
413
553
686
392
369
489
788
424
321
463
668
614
380
399
557
722
338
307
534
729
477
293
481
652
629
390
412
550
754
334
362
494
743
443
311
488
680
603
361
450
536
746
325
365
554
729
435
287
511
661
610
353
443
548
743
305
344
565
735
400
329
487
710
569
352
426
585
737
286
385
583
703
425
334
496
668
607
352
434
588
705
370
346
594
686
461
296
535
709
571
315
505
537
669
352
393
518
741
433
304
521
710
605
320
434
615
694
263
379
559
723
431
317
511
721
556
302
436
631
684
308
434
506
716
416
317
495
725
554
321
462
567
706
258
428
573
715
386
328
504
729
536
352
444
565
741
343
380
545
758
368
310
546
732
575
306
457
550
662
362
385
551
726
446
280
509
775
555
342
460
595
682
333
365
535
696
417
311
488
760
530
305
474
600
686
320
351
571
718
422
300
581
738
523
315
457
598
671
341
358
579
706
417
328
502
738
515
325
420
635
724
303
341
517
687
428
309
506
756
527
368
442
600
674
310
398
487
685
459
352
498
711
524
305
447
632
686
319
371
500
680
486
299
509
774
537
305
449
635
616
405
326
515
734
435
328
514
744
485
339
428
644
650
343
360
487
687
432
338
512
752
495
334
432
665
645
317
439
508
682
447
323
511
733
502
344
455
686
674
289
387
502
681
405
376
497
724
466
347
460
683
638
353
379
498
669
403
349
460
859
433
314
439
686
623
347
383
549
687
359
349
545
685
559
333
402
717
665
292
380
522
686
360
319
568
766
472
325
475
639
643
344
407
533
687
340
378
534
750
454
365
454
665
602
340
434
546
703
358
365
510
742
498
277
498
681
647
336
378
612
687
357
366
529
710
417
278
497
668
623
371
405
527
723
327
346
554
736
469
295
462
676
630
369
370
634
685
325
378
550
720
443
354
456
684
628
345
392
545
745
336
354
535
736
484
276
479
721
622
305
421
509
820
333
385
541
732
401
355
488
658
661
337
417
538
764
363
371
541
728
440
318
502
670
635
342
417
552
741
328
375
557
717
432
322
470
750
645
341
403
610
785
253
403
533
727
399
348
498
769
623
350
399
538
750
371
386
502
747
421
309
489
743
625
305
446
544
720
326
393
557
666
415
307
536
687
609
309
404
590
685
315
419
505
728
441
304
498
736
594
352
419
574
737
287
430
533
660
468
290
532
744
620
276
464
549
721
313
419
550
698
439
303
475
743
652
295
470
579
717
310
323
580
672
518
302
502
748
592
286
446
585
679
333
384
529
695
461
318
486
758
556
292
441
628
684
340
365
532
687
464
328
493
748
549
346
422
612
727
301
341
513
708
458
317
516
755
512
309
431
624
686
322
387
497
683
374
394
446
750
539
364
445
643
626
412
364
473
699
435
341
486
734
503
355
414
652
676
324
367
463
751
415
335
499
733
536
297
432
646
673
347
362
468
706
439
330
512
733
491
311
429
663
658
386
377
454
660
486
314
477
802
474
277
436
682
607
328
381
508
685
428
333
543
725
497
288
423
685
608
345
358
530
684
421
336
512
726
543
198
494
675
633
344
409
483
684
358
368
498
784
493
317
444
686
639
292
389
529
686
367
383
507
770
510
248
518
687
591
348
385
528
682
374
350
509
743
500
278
453
686
625
333
420
535
711
372
331
510
729
499
302
476
726
610
329
421
555
710
350
338
510
738
466
310
481
684
621
357
368
553
735
344
413
521
716
489
285
460
675
633
346
409
557
689
352
366
525
746
447
313
492
685
649
344
419
570
726
327
378
533
702
508
297
442
686
599
351
408
526
769
338
374
508
750
438
314
456
687
622
336
407
537
741
342
365
547
717
446
298
508
672
586
388
411
521
759
325
343
585
719
438
310
535
686
583
352
430
520
731
304
337
577
740
426
281
556
687
614
326
426
484
785
304
406
530
768
438
297
474
740
554
353
425
552
740
324
389
514
742
425
307
505
729
616
309
505
533
713
320
387
527
722
430
314
526
690
613
331
450
573
722
296
410
506
720
426
324
513
687
651
320
410
552
722
306
384
567
705
403
284
473
756
605
306
450
584
676
327
427
502
725
411
331
469
749
616
319
404
587
729
306
373
553
698
430
328
467
766
623
288
472
559
731
287
393
524
718
451
277
530
763
573
323
450
589
683
314
401
513
749
441
281
505
749
540
258
453
675
661
351
364
543
685
420
308
509
750
564
294
474
623
646
350
371
490
721
367
340
506
767
523
324
454
593
621
379
351
507
714
438
251
510
743
579
342
456
629
645
388
328
490
747
438
313
511
756
510
319
422
648
617
317
398
467
707
412
380
485
773
536
322
394
643
638
353
351
504
695
455
297
472
709
531
323
428
666
668
342
335
493
670
455
363
527
747
504
298
422
666
680
281
377
547
704
445
340
530
731
524
302
445
679
667
308
383
529
683
395
359
526
722
522
303
459
677
619
308
417
515
683
363
411
486
722
513
302
474
652
607
366
347
570
709
399
338
519
733
499
292
427
685
611
327
368
580
686
441
301
545
729
486
279
432
707
632
323
411
538
690
385
344
502
713
511
300
448
680
644
386
366
552
688
395
343
501
753
489
295
465
717
605
326
380
620
706
373
342
538
720
424
317
480
654
584
412
370
545
735
370
337
547
731
421
265
468
717
577
376
436
546
694
275
412
543
719
419
313
475
705
601
337
425
552
759
373
355
567
730
371
427
393
716
634
361
418
534
713
282
426
510
764
418
342
472
686
614
362
424
525
717
421
336
480
804
449
286
539
712
546
499
389
502
856
320
354
545
681
460
299
506
686
574
346
482
486
747
381
374
558
723
401
200
635
682
561
352
361
611
730
329
371
582
726
422
308
491
704
596
448
419
547
736
352
368
553
703
307
451
428
725
602
345
411
555
714
304
378
500
747
419
317
479
718
595
313
410
591
739
298
366
584
722
380
352
480
761
571
313
400
566
759
300
395
585
708
404
275
539
729
590
282
473
588
752
297
359
582
705
428
302
525
761
601
274
473
572
725
314
374
544
728
416
287
466
705
602
280
441
621
690
292
344
547
752
418
316
501
726
574
342
423
620
659
342
341
503
688
441
322
508
752
483
314
465
629
624
365
372
482
683
518
309
503
694
558
260
439
633
683
284
344
484
659
564
275
510
743
533
273
493
631
676
364
322
514
684
426
316
516
727
464
350
452
625
684
315
344
483
735
433
297
512
734
515
317
425
640
681
259
464
488
699
423
354
488
714
498
302
483
572
670
313
374
558
678
420
314
484
687
562
386
439
673
646
315
356
494
686
401
339
496
776
431
300
563
659
611
354
383
510
685
418
340
541
735
453
366
443
662
622
294
433
502
682
427
359
491
696
496
388
446
685
686
296
410
516
685
399
335
482
743
502
336
452
638
693
324
377
539
687
393
309
486
754
482
285
449
734
621
319
374
561
683
331
329
581
734
447
334
482
662
631
355
405
495
679
334
438
460
762
474
299
451
635
680
372
402
528
707
391
366
518
749
455
325
473
713
606
443
402
486
740
326
395
533
730
445
315
483
671
631
380
428
549
694
309
388
480
747
511
304
435
748
599
344
419
512
748
364
364
549
708
428
263
485
727
612
353
425
545
754
259
466
536
707
429
356
458
669
629
348
386
511
767
414
341
570
747
393
324
464
709
597
421
402
528
766
313
384
562
699
443
326
483
687
620
322
444
517
752
278
415
533
722
486
354
496
685
609
314
409
538
756
321
400
542
676
466
304
519
731
616
361
422
530
753
304
380
523
745
446
311
502
738
590
301
363
625
725
326
385
547
703
416
281
582
718
593
298
381
567
800
296
400
513
717
476
314
487
740
613
334
413
570
708
337
367
537
731
405
331
487
694
679
315
441
625
683
322
367
539
699
450
310
500
713
532
416
478
551
784
217
446
525
677
455
332
500
705
535
324
459
607
698
322
362
446
848
411
320
507
759
535
337
409
597
685
376
387
493
732
434
308
487
739
553
314
455
607
655
400
342
544
664
443
388
484
763
544
343
424
598
667
337
376
528
703
425
319
486
752
479
423
404
610
685
298
380
505
661
427
346
502
727
491
369
403
645
645
351
373
478
644
499
347
488
721
532
317
455
630
625
355
320
449
692
442
351
475
757
537
296
408
704
667
281
400
480
741
398
321
555
729
499
313
406
684
584
350
350
505
685
470
340
489
739
496
304
463
658
685
305
409
460
736
448
337
490
740
508
263
495
669
645
337
365
509
685
363
377
506
762
497
282
427
643
660
350
385
532
669
393
386
525
752
486
377
464
677
640
306
405
543
687
394
313
564
726
490
285
489
662
636
361
376
560
686
366
398
510
714
505
298
451
677
658
351
362
578
683
341
377
512
763
463
300
475
667
610
369
403
584
661
371
341
521
730
472
317
461
667
627
401
412
541
689
398
330
519
775
459
292
468
687
610
369
383
569
736
338
362
496
791
465
292
502
659
622
352
425
542
739
342
345
509
769
449
287
485
683
605
365
348
627
776
302
403
549
684
491
322
468
685
536
417
442
474
756
395
383
525
725
467
297
488
672
632
345
444
512
774
381
297
581
717
428
320
501
677
594
384
391
535
775
356
374
579
718
423
289
478
695
636
321
438
542
724
393
352
528
763
354
335
495
733
623
330
454
550
754
337
364
535
734
419
270
581
689
586
351
477
534
707
289
413
536
727
441
248
527
689
588
325
497
527
733
384
387
541
724
429
286
496
714
610
355
440
567
738
307
368
553
718
418
294
503
688
630
340
444
555
720
323
368
565
684
485
301
507
727
615
305
405
615
682
366
387
501
734
407
341
487
744
613
292
423
622
682
313
376
568
725
398
312
497
765
594
231
516
577
687
314
369
602
686
418
307
496
736
570
320
411
643
677
324
367
537
686
426
301
502
738
569
317
436
603
665
309
443
492
705
493
326
474
751
556
280
464
608
690
316
390
527
706
431
319
484
740
566
279
428
605
674
312
348
464
734
462
308
470
710
548
291
464
617
682
363
321
496
674
456
314
545
741
533
283
412
687
668
330
317
428
807
404
316
537
745
511
268
485
645
689
363
323
522
667
494
317
541
743
525
264
496
649
668
348
348
464
735
456
326
536
816
463
358
410
676
656
318
378
443
718
488
318
512
768
487
315
426
668
721
338
338
519
674
388
362
566
723
515
295
456
632
642
336
349
544
671
476
277
543
742
496
307
465
669
631
331
374
498
712
415
302
642
720
487
301
472
632
629
334
354
591
685
395
323
479
759
496
341
448
643
671
351
358
548
701
393
331
512
747
477
271
491
689
584
367
389
550
660
429
358
487
772
496
254
442
738
628
392
376
559
685
365
366
523
716
515
295
387
715
649
298
481
532
686
350
367
549
738
490
281
448
682
631
352
402
563
720
324
376
502
801
457
298
446
684
613
383
381
550
724
340
333
549
713
431
348
445
686
653
351
415
523
734
355
347
516
756
429
336
492
677
601
421
399
538
748
340
393
538
725
436
306
479
678
634
313
494
536
754
346
335
540
765
381
323
516
686
608
371
394
521
765
341
366
541
761
437
304
478
684
631
369
410
542
764
298
399
552
745
397
340
489
673
628
356
387
594
719
337
422
514
718
426
297
490
747
610
338
411
564
746
311
350
571
717
416
281
509
671
645
305
433
560
765
317
382
547
715
426
290
504
677
667
374
438
552
772
286
366
546
685
403
356
505
733
622
328
482
569
722
346
369
551
726
418
289
590
690
585
326
376
634
710
300
424
561
718
359
313
533
746
544
326
428
584
695
332
358
561
715
398
337
490
797
554
264
442
587
714
291
396
501
723
520
318
522
733
578
273
429
591
677
325
380
571
681
440
283
540
756
561
286
434
603
680
283
443
482
741
481
320
502
739
536
300
454
592
698
342
333
552
697
392
314
470
774
527
332
447
610
692
308
344
512
686
434
333
502
759
610
310
382
630
644
356
328
504
743
419
317
511
735
523
354
400
595
805
298
333
543
688
436
326
472
783
545
261
442
637
683
311
358
481
748
397
284
552
769
496
359
401
622
680
324
369
493
689
447
303
495
777
509
294
451
630
704
238
450
510
665
429
342
490
738
478
372
405
662
627
342
357
498
676
437
418
523
714
523
314
415
687
620
323
356
521
686
450
342
521
742
462
339
424
686
627
386
340
551
670
425
333
539
736
496
307
485
668
629
321
366
568
669
453
291
560
770
457
275
468
749
634
342
395
535
671
369
320
521
788
498
314
459
671
654
390
410
536
681
418
301
509
712
540
268
508
672
625
325
431
576
722
370
339
508
748
436
304
497
708
626
360
457
526
747
305
378
546
721
458
322
474
680
643
363
377
584
730
335
344
545
724
466
250
510
675
622
356
432
504
789
306
347
519
771
414
304
490
674
643
311
424
528
741
288
373
499
753
455
315
526
670
617
353
417
541
739
346
373
557
724
450
315
500
639
647
335
435
559
737
377
328
543
736
419
365
500
678
619
368
419
542
763
307
364
543
698
497
310
470
755
640
293
446
534
751
321
388
551
741
423
309
488
744
643
373
386
558
776
263
411
531
712
462
308
504
723
619
330
387
568
744
298
403
579
710
421
321
485
756
611
270
470
540
736
312
349
562
737
419
280
504
746
636
343
436
558
711
331
378
566
725
402
342
493
728
633
286
496
572
686
348
400
552
715
425
309
506
776
607
308
417
581
699
327
369
550
704
451
298
484
766
592
305
452
590
688
329
392
522
700
425
321
489
735
565
280
436
610
684
292
380
511
686
418
343
490
742
529
297
452
581
732
329
356
469
703
431
332
531
709
581
345
