CH1
620
332
412
556
739
364
344
515
751
500
296
470
675
619
367
459
524
769
321
398
542
727
446
323
485
683
619
350
421
552
732
348
381
517
742
410
315
470
728
589
405
372
552
740
323
370
551
718
402
308
486
717
567
334
445
556
744
297
429
557
688
409
300
503
710
598
358
449
536
737
317
365
568
717
409
301
502
732
584
347
428
545
711
306
357
572
757
434
302
527
711
589
344
395
590
718
342
362
553
712
387
372
503
735
562
326
437
566
692
341
390
509
743
401
295
530
755
572
344
443
601
683
306
379
536
711
411
331
519
753
542
324
459
567
713
349
359
519
723
424
340
515
737
538
294
449
644
661
309
350
534
663
434
325
554
706
572
264
460
665
653
356
354
496
718
426
326
509
759
520
308
473
621
674
326
349
547
692
428
342
518
736
496
303
484
668
636
319
422
509
673
437
371
524
721
513
301
454
677
647
337
386
532
686
461
327
522
717
503
318
452
673
651
300
376
536
701
424
351
525
741
484
301
456
685
618
401
342
561
681
457
342
538
692
500
327
445
682
615
330
403
561
657
371
346
554
744
484
304
447
678
600
355
419
541
710
377
355
524
717
503
327
453
685
638
356
384
552
686
344
366
517
743
483
292
473
710
633
352
394
616
674
349
372
526
739
443
311
471
685
617
336
414
584
721
329
360
537
723
452
277
554
674
563
386
433
564
733
340
374
522
731
454
309
469
748
607
337
424
580
745
325
375
551
723
426
327
494
685
603
398
430
566
744
311
385
556
693
461
310
516
686
589
328
430
563
736
311
403
550
684
456
330
466
761
598
330
443
541
731
316
429
532
722
446
338
486
717
607
323
431
559
732
321
382
535
721
451
308
502
737
561
317
426
567
735
342
388
521
740
412
277
534
723
571
331
446
599
714
308
383
558
714
405
357
501
729
601
290
429
584
702
289
416
534
684
474
294
509
745
580
297
473
610
685
305
379
540
712
403
336
531
731
541
333
472
588
696
289
386
543
690
479
308
523
737
537
281
498
619
653
319
421
511
687
421
353
525
744
528
331
449
621
698
317
359
501
691
439
332
512
747
505
298
497
640
644
346
391
467
721
439
336
510
742
515
299
456
657
660
356
352
526
682
437
322
518
751
492
249
488
686
678
304
380
520
698
441
331
512
748
508
293
433
685
666
298
355
546
686
376
401
517
725
552
294
444
687
629
302
382
539
685
425
352
536
736
479
254
504
685
602
336
440
514
674
423
317
551
727
481
291
442
732
606
331
394
558
684
318
451
529
726
480
309
464
672
592
356
392
568
685
400
339
503
797
463
283
467
683
627
356
410
552
725
339
365
532
736
458
312
467
656
567
473
408
601
741
335
366
509
729
446
290
492
716
595
351
434
569
744
331
373
567
696
451
287
511
690
609
337
465
513
769
327
366
541
749
433
292
487
714
629
344
429
525
810
315
369
557
708
434
299
496
728
643
322
448
601
735
291
394
570
692
447
292
544
733
587
326
435
548
692
337
401
551
731
429
312
528
722
595
355
435
589
764
289
414
558
734
419
276
495
727
596
304
436
596
703
303
370
577
716
417
307
545
686
618
286
432
627
694
326
374
544
725
393
323
495
767
558
302
442
611
684
296
398
569
685
429
319
507
746
581
336
427
601
690
318
360
515
727
444
322
508
731
537
330
419
639
665
314
396
481
707
383
323
507
737
498
336
458
633
658
332
396
506
685
420
334
492
765
509
321
445
677
645
312
378
502
692
432
379
550
711
527
317
453
687
650
336
363
512
707
433
353
469
688
534
277
473
684
648
316
336
546
655
430
362
498
788
485
291
455
707
620
301
378
523
675
436
320
564
757
493
289
471
685
595
336
339
588
663
405
355
543
756
482
272
491
689
623
333
407
543
706
379
350
572
740
435
353
474
685
639
325
380
580
684
393
347
564
730
457
310
468
683
623
333
435
563
725
351
344
501
788
458
237
487
710
598
355
459
584
745
340
368
474
732
460
321
471
760
598
325
400
578
730
372
376
540
721
459
330
491
684
603
352
414
568
728
358
372
514
759
417
318
496
670
614
347
414
552
759
340
370
547
716
441
331
487
721
594
342
428
554
747
347
377
545
686
439
332
484
744
592
323
474
568
715
310
385
571
723
415
322
528
730
564
299
443
562
731
326
369
557
719
423
300
473
793
604
308
467
584
686
317
363
547
689
451
306
504
763
524
328
446
579
682
328
397
549
685
495
313
487
762
549
313
448
590
702
292
366
515
727
442
340
519
726
526
308
458
632
645
347
371
482
709
502
336
518
734
526
320
423
641
665
317
381
469
690
458
346
494
760
517
306
434
661
636
310
397
472
708
423
333
520
718
531
328
454
664
675
326
360
510
678
448
328
531
727
487
344
457
683
628
326
372
536
683
434
309
546
752
477
319
432
685
627
370
366
536
720
432
316
504
737
481
317
439
683
622
324
398
537
686
396
359
532
733
495
320
440
685
612
333
444
541
684
379
348
543
733
461
295
480
723
604
352
420
564
735
312
350
549
737
454
296
483
681
607
391
399
493
789
313
405
564
747
431
311
475
684
598
348
428
568
747
325
369
565
731
424
311
504
662
637
352
447
549
742
337
347
567
726
450
339
503
699
611
348
419
512
778
329
385
555
746
413
311
494
688
624
331
444
543
741
334
368
543
724
426
305
528
760
552
307
407
649
737
308
402
550
676
408
319
508
735
541
367
456
571
709
328
379
529
693
412
330
516
742
577
319
389
675
682
320
385
575
724
421
313
501
765
549
294
444
613
683
302
383
528
688
441
319
502
741
570
325
461
642
664
314
390
459
726
423
335
542
736
533
310
444
643
662
320
360
483
685
447
326
502
714
548
331
471
653
653
351
362
496
689
429
349
526
737
490
319
443
691
597
376
348
528
685
410
277
558
700
510
296
470
682
628
331
363
544
674
424
348
534
721
503
286
485
684
620
377
380
532
683
409
344
524
741
495
300
463
687
616
335
383
570
704
375
354
547
732
490
304
476
707
611
335
426
568
687
357
361
504
751
451
304
502
690
613
350
404
550
735
318
356
547
749
448
329
469
680
612
352
462
555
741
346
351
522
717
459
282
517
683
611
343
414
564
736
321
378
563
718
439
296
490
693
602
335
451
556
742
330
370
544
738
423
330
503
720
576
371
436
547
742
323
385
540
727
430
317
507
728
595
324
444
567
727
313
386
550
721
413
311
523
728
584
365
392
608
685
320
370
560
735
386
297
536
750
574
317
446
593
682
320
379
538
712
436
305
508
724
623
312
437
590
716
295
373
550
683
470
346
496
744
548
306
455
616
688
314
360
529
698
416
345
510
746
534
300
454
656
662
313
389
507
684
457
332
524
733
524
307
460
643
651
348
370
502
685
455
326
484
772
499
308
452
663
661
356
349
500
686
445
322
517
737
504
313
456
673
649
317
368
538
657
445
354
494
737
496
303
442
711
621
330
400
541
686
384
355
535
739
494
290
443
687
631
337
400
535
714
366
373
548
748
488
294
450
685
624
338
400
573
683
361
327
502
762
496
302
490
685
621
333
404
565
699
369
367
524
723
422
288
501
686
605
343
437
540
740
335
336
548
738
426
343
482
649
674
367
407
532
772
324
383
536
711
450
315
491
686
602
369
407
548
766
336
374
515
751
414
339
487
746
600
342
392
541
774
326
380
570
719
440
300
489
725
601
333
432
550
737
326
381
541
722
456
307
481
741
591
331
432
556
725
334
365
553
718
433
314
513
729
593
305
446
588
700
324
360
547
716
440
309
517
733
588
298
439
597
697
335
376
522
713
454
308
537
728
608
303
448
617
681
320
335
507
733
429
334
521
736
547
326
404
674
652
341
349
497
708
440
281
530
757
562
325
444
631
672
325
356
495
695
463
317
500
747
547
299
446
648
659
323
352
507
685
452
379
505
739
498
310
447
667
664
332
373
509
686
400
369
507
767
492
289
440
655
638
324
381
545
708
415
342
560
740
489
281
445
685
637
352
399
547
681
398
337
541
742
526
268
465
669
621
349
417
551
735
358
344
523
736
470
273
484
691
625
365
400
551
741
329
323
536
758
483
295
486
684
599
378
389
550
781
332
353
516
721
445
325
479
682
608
397
397
527
781
357
360
511
729
447
322
486
710
587
329
441
552
774
348
362
506
738
467
303
492
712
598
322
460
549
749
339
416
535
708
425
306
507
717
618
301
431
574
728
309
376
542
686
443
327
512
729
564
333
454
588
675
362
366
530
730
377
332
490
750
551
354
424
546
793
327
362
518
702
467
305
491
742
579
327
421
549
703
274
424
505
710
444
380
484
806
547
307
433
619
649
282
351
527
739
419
338
466
760
535
362
450
631
685
301
334
434
729
432
359
470
772
467
267
463
629
701
323
348
496
727
454
313
532
750
521
288
527
673
634
341
380
508
658
424
375
528
755
504
271
467
669
620
326
398
510
710
395
325
509
778
487
305
506
678
635
308
349
562
746
355
407
526
721
466
329
445
677
669
352
398
492
769
332
387
538
751
477
324
420
684
624
359
416
557
684
309
403
574
748
453
279
470
667
575
419
438
537
663
455
318
533
754
488
252
527
686
629
358
433
556
732
330
342
514
787
452
273
517
712
614
358
379
548
746
351
376
542
725
419
239
553
758
622
303
532
512
740
304
347
567
714
429
298
527
710
639
295
428
662
714
337
371
542
734
419
322
474
772
530
366
443
589
700
325
378
529
737
424
349
518
707
574
285
469
590
744
304
376
538
712
422
303
470
782
527
320
433
611
647
324
367
521
675
414
326
497
740
569
290
490
623
646
311
384
536
710
402
362
529
741
505
337
414
662
696
320
386
513
687
371
381
528
738
508
317
439
669
671
327
412
520
682
449
312
553
742
508
281
464
685
639
325
370
539
692
402
335
537
752
470
302
456
673
634
375
402
552
694
371
331
529
743
471
336
466
732
608
322
343
610
721
352
349
557
737
443
291
472
675
618
359
384
562
725
333
353
511
712
468
334
475
709
604
344
386
574
688
321
356
551
749
429
299
491
676
621
304
402
571
755
319
367
548
751
422
328
553
685
604
365
418
530
729
311
372
566
688
481
306
527
723
593
328
446
538
757
348
369
567
730
377
373
472
762
632
322
436
614
677
264
397
551
758
412
299
525
705
531
326
407
599
685
317
373
565
680
466
344
462
714
596
376
413
597
680
346
341
553
719
434
338
451
774
606
316
420
628
696
355
351
531
685
422
317
548
740
543
321
450
606
665
304
440
551
714
405
291
567
740
511
331
449
612
706
324
365
556
685
409
317
474
734
536
361
413
690
640
329
313
529
682
433
317
552
751
503
291
461
678
634
302
385
560
716
398
356
561
686
499
286
443
721
631
340
390
546
680
409
343
552
729
491
308
481
683
597
317
451
548
685
377
347
478
795
435
388
478
686
628
378
371
570
688
366
345
498
743
436
340
491
726
587
349
475
601
686
315
434
537
717
462
286
483
686
571
387
425
575
718
361
356
531
685
481
303
506
678
619
346
412
552
735
344
360
570
734
437
308
501
721
641
327
434
544
711
330
325
571
712
468
314
506
712
595
326
430
612
684
299
360
615
690
461
323
502
720
577
310
457
588
685
311
425
543
758
437
354
481
728
541
363
418
622
680
335
370
538
697
438
308
520
700
620
271
451
638
673
284
390
536
692
425
328
529
768
503
296
478
635
679
319
343
560
754
440
313
523
741
503
346
445
649
662
364
347
500
669
403
343
525
736
519
311
394
690
645
298
403
557
665
414
349
523
749
493
311
464
639
700
308
399
537
684
415
344
566
700
472
350
446
685
607
299
419
547
770
364
371
546
753
486
275
487
685
628
335
402
555
686
356
306
536
747
488
305
468
735
602
332
431
571
707
326
343
529
726
469
290
484
687
603
369
425
598
690
366
368
536
749
441
295
505
686
604
382
428
545
729
329
373
548
718
437
331
477
748
556
342
417
569
705
366
361
544
767
408
304
533
734
560
357
438
567
705
323
413
539
728
411
313
504
685
627
313
444
575
716
311
381
540
703
442
341
500
748
599
298
437
588
665
317
381
594
703
463
326
495
735
545
312
446
608
669
341
342
553
711
432
319
511
759
530
299
466
613
677
307
369
532
703
413
336
497
725
552
315
429
652
643
308
360
516
721
448
294
519
746
472
395
437
655
657
323
354
525
685
414
372
532
749
415
389
432
671
623
305
414
525
686
400
338
544
751
501
304
455
682
644
313
381
519
763
362
352
544
769
489
278
442
687
596
355
437
577
685
352
343
536
730
463
327
475
683
625
357
428
568
687
336
345
563
725
413
363
506
703
566
368
402
563
670
374
363
562
732
470
295
477
686
599
355
439
555
753
314
371
546
743
434
236
524
718
587
337
478
565
699
292
401
580
722
429
297
490
692
606
361
443
555
737
341
350
571
738
434
292
510
728
617
318
436
561
758
297
371
557
727
424
339
509
734
586
318
421
624
695
315
431
528
724
453
319
506
713
598
322
444
621
678
334
367
533
703
412
345
509
737
568
309
449
605
682
336
359
539
713
402
371
506
726
523
353
418
590
750
322
367
526
670
448
355
501
738
508
341
461
653
650
349
377
492
682
461
326
475
768
531
282
468
685
618
363
365
534
679
423
343
535
746
486
346
448
689
640
330
367
561
672
428
378
525
738
478
329
465
678
630
324
413
535
686
356
387
522
750
470
282
510
685
629
354
405
539
707
327
378
546
708
497
280
529
675
605
337
426
560
767
302
385
501
798
436
303
493
682
627
352
416
555
758
313
366
536
718
432
339
520
686
595
350
421
544
732
330
378
567
732
413
342
505
683
587
370
434
560
733
352
354
571
733
399
318
526
713
573
343
426
583
719
340
392
565
722
417
266
565
721
588
305
449
555
710
323
363
566
735
399
300
541
735
572
309
459
601
689
323
381
530
725
382
363
586
749
544
316
451
605
653
312
353
515
737
433
304
568
744
536
298
443
634
683
322
361
552
699
430
308
547
745
508
285
501
656
637
349
375
514
686
425
334
536
747
506
312
460
677
645
311
379
518
682
416
375
526
776
474
337
439
685
589
362
353
535
685
414
338
527
738
486
311
458
688
608
329
417
546
686
375
347
528
767
403
379
481
687
624
323
430
554
680
333
357
568
744
446
298
484
684
611
362
435
550
750
341
362
508
726
438
316
462
695
600
369
403
551
732
326
402
527
729
479
291
449
668
650
348
404
575
790
259
388
580
730
452
354
462
715
585
322
475
562
714
349
376
545
745
409
329
504
730
553
386
457
568
723
314
401
482
737
430
326
481
749
594
306
437
563
717
308
415
535
726
375
340
522
760
557
317
439
574
671
316
348
582
719
400
324
526
743
543
306
452
632
671
316
377
519
687
394
325
534
684
564
315
425
650
668
332
361
522
686
411
330
515
744
528
303
449
652
658
355
385
500
685
446
323
526
757
489
332
466
647
682
300
391
516
658
509
350
509
745
472
269
498
687
612
330
403
527
666
424
346
509
754
482
276
470
679
570
330
433
532
700
414
342
523
749
451
319
480
696
592
319
408
606
683
308
428
484
766
455
310
486
666
593
339
460
546
693
405
363
521
717
453
370
471
691
567
371
406
552
783
362
313
546
743
440
304
513
685
619
314
427
559
733
345
369
558
732
380
304
526
730
581
324
471
593
707
337
384
568
706
433
315
482
732
589
324
494
556
742
327
378
528
744
417
320
497
694
640
291
423
591
741
344
351
538
730
431
301
506
739
577
314
445
601
684
317
368
532
733
402
376
510
705
591
279
458
605
682
327
367
552
700
424
323
502
756
545
304
464
632
660
316
369
509
682
459
303
489
785
536
324
464
638
669
306
351
497
688
440
330
525
747
519
294
507
656
669
286
343
542
704
445
346
578
732
482
313
459
678
644
326
351
525
659
434
332
630
717
442
360
433
688
583
321
402
514
702
357
358
516
748
532
265
460
685
625
333
389
557
623
473
335
505
752
487
278
471
682
659
326
419
591
688
307
358
582
728
461
318
458
720
596
394
416
571
729
366
360
519
788
426
328
483
702
615
363
384
598
746
325
364
538
756
442
303
503
686
627
350
420
548
739
343
370
565
707
437
354
534
723
586
347
419
560
711
333
380
552
728
428
305
510
719
610
318
452
528
798
294
389
560
704
435
288
503
726
591
333
446
542
703
341
351
556
700
433
317
512
741
584
315
420
602
683
328
380
555
697
428
258
536
777
546
295
441
610
685
292
369
531
707
426
311
521
714
532
325
425
666
672
290
372
506
702
423
392
519
737
503
321
411
659
680
337
367
492
687
403
362
539
752
509
321
413
658
645
322
370
465
748
412
335
522
723
514
297
436
672
628
350
375
534
685
408
340
524
728
495
317
471
685
604
326
360
573
724
367
373
536
745
475
300
467
661
677
343
398
561
684
377
326
571
742
469
284
525
685
601
322
419
598
687
328
375
537
733
457
303
493
668
610
372
428
523
740
334
385
553
706
458
305
505
687
646
353
416
532
706
389
389
538
737
437
287
521
685
646
372
445
550
738
324
376
541
729
433
314
500
725
619
343
436
570
718
322
415
524
725
420
327
518
734
532
373
440
565
729
332
379
539
707
410
304
519
728
601
309
456
598
700
317
388
561
716
411
337
529
732
504
337
434
615
675
309
346
540
716
421
317
599
735
473
349
451
627
644
308
429
503
696
453
347
534
717
487
325
443
644
639
388
369
491
706
434
323
536
742
531
299
433
687
673
307
385
500
714
428
324
542
726
512
296
428
696
610
309
334
553
683
410
350
538
748
499
291
465
692
625
314
404
576
673
391
357
565
719
476
337
466
684
622
360
387
540
665
420
329
537
720
501
286
492
680
627
340
402
519
774
336
336
562
743
446
307
450
689
620
348
399
568
734
335
373
538
747
435
310
509
685
583
390
413
549
761
336
352
568
734
445
320
533
693
617
342
416
549
762
328
331
551
740
446
303
523
686
583
319
435
551
792
316
390
569
717
417
320
485
738
586
324
470
557
751
327
372
540
717
430
304
518
692
625
317
391
603
733
306
385
580
729
427
310
497
731
609
297
437
612
709
316
378
540
699
448
327
518
765
546
263
469
599
663
316
394
532
652
409
352
498
754
568
298
435
595
687
288
391
427
703
441
403
532
693
576
266
436
641
671
337
372
497
686
424
340
543
749
478
296
493
679
622
346
366
527
685
453
340
537
727
464
319
482
675
642
340
364
543
679
464
355
540
742
468
318
395
722
629
366
369
559
684
367
351
509
791
489
296
467
684
621
333
405
552
686
360
347
528
737
446
300
478
710
611
359
387
516
772
348
317
572
733
499
278
487
701
604
362
412
556
719
340
365
523
720
466
296
484
685
584
305
440
562
747
347
369
532
741
434
290
476
687
651
342
442
547
798
292
367
551
730
448
297
487
751
586
311
476
551
695
346
371
566
713
498
311
503
694
618
341
409
583
715
314
406
522
734
402
323
599
685
588
327
411
582
679
299
388
544
689
453
345
532
736
594
312
463
600
678
347
381
563
686
431
331
548
742
502
411
423
608
657
278
395
506
675
469
316
549
764
506
286
455
636
665
295
382
501
676
470
329
528
755
536
268
519
616
686
353
359
481
701
396
395
511
772
467
310
459
637
676
327
385
495
722
413
327
528
758
491
307
458
673
663
315
381
537
677
438
324
511
726
485
365
406
684
659
339
348
555
712
391
330
543
772
441
303
454
782
577
311
441
527
716
328
393
548
685
486
300
471
709
589
333
440
561
688
340
376
511
737
444
292
485
686
603
382
420
572
784
316
352
546
728
459
275
460
683
622
360
397
552
750
325
361
544
733
415
321
485
720
614
350
387
568
704
357
386
578
747
456
295
456
687
582
360
439
576
724
330
384
549
731
444
309
484
741
577
360
446
556
731
297
411
537
725
432
345
498
705
583
335
457
581
704
340
346
570
717
439
339
503
730
598
316
439
563
701
338
355
538
738
383
354
527
768
542
321
434
632
685
320
383
542
707
413
344
543
735
535
332
465
620
685
309
402
530
721
406
345
515
753
525
322
450
646
671
320
393
499
683
405
353
532
751
497
292
484
650
653
322
335
483
741
375
417
556
776
523
253
474
704
622
270
402
501
709
439
322
491
773
492
275
462
670
685
320
380
492
695
438
345
539
744
529
315
437
684
631
322
406
547
689
341
383
525
727
496
281
474
687
608
336
424
535
689
293
414
517
806
477
275
490
706
603
371
380
571
735
338
346
543
741
451
317
474
675
669
316
473
564
702
325
379
534
729
388
301
482
707
580
365
435
550
721
318
385
582
693
420
342
531
685
616
361
397
579
755
331
385
562
725
399
307
492
715
642
324
434
546
742
303
373
602
710
434
298
500
728
551
365
444
559
735
285
362
599
707
410
303
579
725
559
315
448
597
696
306
403
531
736
415
306
489
763
537
332
439
602
683
297
405
563
731
378
362
543
744
567
298
429
621
696
294
376
506
726
534
287
539
761
562
281
412
607
662
343
380
512
705
413
303
559
725
566
357
474
637
653
289
378
482
682
429
325
518
740
538
312
475
683
669
301
364
504
685
463
310
562
740
531
303
424
674
626
363
382
478
678
469
328
518
749
506
276
502
679
612
326
396
526
679
396
393
561
722
498
292
449
659
684
312
399
566
672
357
325
541
735
440
290
479
644
615
378
424
551
716
345
352
513
721
481
283
428
731
644
344
449
569
686
360
329
507
725
462
295
520
686
596
366
427
548
711
347
356
513
749
439
294
469
794
592
326
458
564
744
329
354
574
716
438
311
476
720
618
335
408
554
753
289
411
532
742
438
315
488
680
565
365
452
558
745
357
373
551
707
426
308
492
725
583
341
413
582
732
307
353
565
718
413
319
482
745
555
311
451
557
683
352
375
555
718
431
318
544
735
541
373
450
632
696
293
385
498
737
404
288
489
783
584
282
463
619
658
327
325
532
745
402
341
532
718
529
315
453
631
655
323
355
511
679
476
329
510
731
568
293
468
642
669
336
353
503
685
447
317
529
735
509
338
446
662
667
327
298
557
656
450
346
537
739
489
298
444
682
649
311
378
508
720
398
312
576
702
509
264
495
685
629
298
387
544
684
402
387
538
736
488
314
447
684
570
396
359
557
746
378
314
613
738
537
282
484
654
675
345
373
568
681
320
343
570
696
495
287
477
684
600
333
428
572
735
347
366
531
736
406
323
476
707
609
337
397
601
726
294
400
547
718
456
252
598
677
595
340
387
573
746
315
370
541
772
418
290
501
710
620
333
322
627
792
327
370
589
717
417
263
560
701
607
333
432
546
731
334
378
543
731
426
313
507
721
616
295
435
626
698
291
417
539
686
400
332
508
741
592
310
448
573
719
298
328
620
714
434
246
609
761
534
300
435
619
691
315
373
541
710
411
339
520
743
563
311
422
617
675
306
438
549
670
454
277
533
747
538
313
445
626
677
331
369
512
656
481
313
517
750
519
313
438
627
686
329
338
525
686
431
325
535
751
508
312
445
639
675
317
382
489
689
471
332
512
731
526
313
446
685
586
366
384
526
679
409
334
542
728
477
322
465
685
608
322
380
551
656
492
315
506
731
521
305
441
654
649
350
371
533
676
424
336
497
752
485
303
447
718
585
351
388
552
685
367
343
511
754
481
291
481
709
589
344
411
566
699
332
346
528
733
482
297
438
704
624
363
399
552
728
329
347
529
755
462
307
479
630
685
330
434
554
727
388
370
532
732
448
310
486
678
593
349
449
548
752
316
353
579
698
433
352
443
774
609
344
408
551
728
309
414
540
723
439
295
501
690
603
310
441
560
772
260
392
575
727
407
351
496
721
605
321
446
554
726
315
403
577
718
387
335
535
759
576
296
460
612
684
276
401
560
673
398
283
511
739
564
308
472
591
666
352
384
542
705
438
324
494
707
598
311
435
570
751
304
371
525
710
422
293
506
786
562
307
455
623
679
322
377
537
714
419
316
499
737
564
332
410
686
653
280
406
532
713
420
344
513
733
519
329
450
619
677
311
380
522
685
430
335
532
737
498
283
485
623
676
307
412
477
731
433
332
540
783
498
248
554
668
599
380
330
541
678
425
326
567
742
488
304
491
663
622
336
404
534
674
397
330
543
765
475
326
448
724
635
332
386
567
652
432
313
524
771
486
326
453
687
626
307
396
560
704
360
357
476
757
463
281
476
687
682
291
442
560
691
352
349
524
723
479
299
475
710
598
359
393
574
732
309
377
554
738
429
263
574
670
619
341
415
556
726
330
427
508
769
435
253
509
673
593
354
428
564
724
286
420
523
701
456
270
579
675
601
375
439
547
757
309
405
538
720
438
298
529
716
582
336
468
540
757
292
366
556
722
441
317
463
733
572
325
458
555
755
314
360
559
732
436
309
491
746
587
289
444
586
705
265
386
615
724
410
331
520
727
574
302
453
586
700
304
390
572
713
412
325
512
768
541
272
486
640
645
355
346
548
754
401
324
515
747
558
315
406
606
687
336
378
495
720
478
331
509
777
533
358
392
639
671
306
368
487
705
470
302
556
758
535
302
451
624
656
332
375
507
681
464
288
527
778
523
360
456
654
668
321
368
498
683
422
348
523
734
528
320
444
670
661
314
412
464
686
451
302
526
763
492
332
460
688
622
326
373
529
720
418
311
556
732
477
261
492
687
598
353
332
563
768
422
356
537
733
473
291
448
733
624
326
405
547
684
365
389
518
739
511
260
527
662
655
348
365
546
727
315
432
526
804
506
272
474
681
614
336
392
541
735
337
384
520
709
448
320
457
675
626
279
495
561
716
337
348
531
754
447
307
451
710
589
340
418
538
761
350
339
498
677
537
276
463
687
604
378
397
569
713
363
372
518
734
444
304
493
676
570
410
395
554
778
348
357
516
711
458
327
468
713
596
333
385
544
777
338
365
553
732
422
288
490
719
610
356
419
551
752
322
363
582
702
437
306
510
709
609
345
452
587
734
364
373
546
721
393
328
497
724
617
324
413
545
718
370
351
584
728
414
265
544
740
584
328
496
551
728
292
388
529
671
480
295
521
779
582
303
426
560
685
344
391
527
694
449
329
488
760
588
330
431
617
753
292
365
567
691
409
304
515
751
577
312
439
598
685
333
389
529
714
429
303
509
685
626
281
490
624
715
305
403
497
685
412
331
535
765
531
316
450
620
691
335
373
494
685
412
353
499
774
517
384
430
600
663
296
367
485
685
453
308
560
728
531
312
451
639
647
345
355
470
717
497
317
520
739
519
303
406
648
705
323
333
536
694
396
303
509
738
512
288
462
660
676
261
417
575
665
450
358
508
738
483
339
439
684
640
320
383
508
638
424
378
514
749
489
304
462
641
644
342
388
503
684
325
421
533
749
495
289
427
685
612
354
401
522
664
382
361
521
767
490
349
442
687
601
407
428
519
674
370
342
547
723
476
329
447
696
647
334
429
548
685
333
337
509
745
541
277
485
685
626
332
416
512
786
325
351
543
740
449
290
491
685
593
324
456
553
729
357
406
503
709
454
256
478
682
627
341
427
550
666
489
320
534
770
436
280
475
627
643
402
408
551
689
384
349
522
733
445
281
506
681
616
364
415
539
740
322
406
528
745
410
275
508
734
579
368
409
584
745
314
358
602
719
418
284
519
741
580
351
445
585
715
318
381
557
728
400
330
479
688
602
363
444
569
740
286
359
548
731
434
338
496
688
613
310
456
569
723
300
435
523
710
471
324
482
729
572
288
453
569
709
265
469
540
709
406
319
508
750
564
328
445
615
684
301
382
528
716
417
353
520
749
577
323
462
595
685
276
371
596
700
425
343
519
707
568
293
452
606
686
320
378
501
710
453
331
509
752
559
312
409
605
667
297
442
528
686
426
303
516
721
536
307
466
619
649
314
393
564
687
415
361
514
739
534
291
500
606
652
341
405
488
717
420
313
519
743
528
290
476
647
655
332
355
501
693
420
342
505
743
484
324
450
632
689
279
378
522
689
421
384
493
752
502
299
473
682
618
326
381
521
679
452
330
520
739
494
293
449
674
656
336
379
500
680
479
360
509
741
520
318
423
645
645
327
396
506
684
423
343
529
746
485
304
465
676
618
332
393
528
687
388
341
537
688
536
345
424
670
654
325
416
514
710
406
335
558
722
483
304
452
685
593
327
401
538
685
362
383
474
759
477
314
434
688
613
362
396
551
685
372
322
541
744
457
319
488
685
610
335
421
591
676
350
388
556
720
460
298
465
710
589
373
430
562
726
372
340
544
721
465
320
485
674
606
341
434
552
731
346
367
528
742
462
285
478
694
597
390
468
557
746
345
382
535
718
420
321
470
728
577
370
429
608
727
325
378
548
699
442
301
516
686
610
339
441
548
739
317
464
523
732
407
334
504
646
590
351
418
556
747
332
335
584
717
411
336
519
688
625
334
373
633
737
285
431
537
722
414
272
495
713
608
343
444
559
726
309
372
576
701
421
340
458
755
567
334
441
601
724
257
475
534
745
449
307
503
734
564
334
438
585
739
298
367
552
739
362
340
560
685
581
326
416
534
759
310
393
569
736
405
300
508
732
559
332
451
593
692
342
371
566
674
466
294
532
777
571
284
439
571
691
332
363
566
751
382
333
504
742
586
297
438
583
689
326
396
527
724
425
300
511
690
610
294
432
594
663
325
400
538
704
424
379
507
757
545
295
439
620
662
301
411
545
700
418
343
512
756
542
314
475
620
674
298
365
538
720
427
303
543
726
529
344
443
631
676
312
367
494
706
441
329
514
706
614
293
412
632
647
335
316
512
741
393
400
531
700
511
307
448
634
631
329
363
559
682
447
332
530
725
550
283
464
649
667
304
329
508
710
426
355
505
716
519
308
505
637
664
327
385
484
662
411
364
533
739
521
273
502
684
656
299
411
517
650
453
355
504
758
489
293
466
682
641
368
363
536
687
407
357
549
687
524
319
363
761
661
302
388
525
684
415
326
523
768
490
294
477
685
642
325
389
526
686
424
300
574
715
522
304
437
686
588
298
427
544
686
389
356
533
686
481
328
464
691
630
331
396
562
687
362
290
604
753
475
300
481
694
613
321
395
545
780
348
369
548
734
474
282
472
682
578
365
398
541
686
354
346
539
763
485
267
509
684
616
319
435
551
684
334
358
525
749
458
278
450
692
632
340
371
590
690
311
358
555
717
472
265
472
710
606
368
392
603
738
317
351
533
772
449
318
490
684
590
371
423
581
736
300
434
509
759
444
306
482
684
597
343
407
624
730
337
375
536
725
439
291
497
688
623
370
392
543
760
322
392
560
725
402
319
559
672
639
347
447
559
725
334
362
545
749
432
304
492
745
595
393
427
548
749
355
347
587
720
425
300
518
687
617
359
415
519
744
341
367
562
738
446
224
523
685
614
369
456
528
748
319
304
641
743
423
271
470
719
562
347
446
551
732
334
376
555
730
401
323
583
687
608
265
484
535
742
347
378
566
678
412
287
515
725
608
333
421
551
739
328
355
525
731
420
302
485
725
623
317
420
538
728
295
382
592
737
422
323
524
727
577
323
456
585
694
333
368
565
732
384
349
549
686
630
326
417
600
692
333
394
543
720
418
309
492
739
573
331
452
638
686
287
432
546
733
338
405
528
738
548
325
493
608
652
317
390
535
698
403
327
541
743
542
279
466
617
678
314
392
617
698
422
339
487
787
545
262
499
626
684
281
378
521
697
404
348
523
734
570
285
515
609
669
321
372
554
705
412
321
530
763
545
312
457
624
641
337
384
521
705
451
317
510
715
584
329
458
647
671
327
353
476
690
495
289
488
793
522
307
454
688
618
389
377
577
691
416
312
540
726
500
305
450
682
646
306
385
529
638
481
323
562
739
511
323
437
642
685
314
392
492
702
428
315
504
801
523
292
476
677
681
354
354
505
689
417
337
505
699
538
324
441
663
670
349
378
494
694
425
305
557
732
487
327
483
679
605
321
364
491
679
422
339
534
727
499
270
432
676
613
390
356
510
676
455
350
512
734
484
363
415
677
648
314
436
517
677
410
320
514
758
496
295
475
661
595
331
381
526
655
428
352
535
706
487
324
449
668
587
332
381
532
731
390
351
581
738
495
289
427
733
603
348
380
530
684
392
347
516
772
475
312
485
682
593
369
387
569
686
330
385
527
738
450
347
460
696
579
315
419
557
673
355
379
550
736
475
315
463
684
584
360
419
548
651
359
363
489
754
469
312
481
670
599
367
397
546
716
329
357
535
732
478
295
478
686
584
330
445
549
719
344
345
548
728
453
287
509
638
653
369
414
567
746
317
393
517
727
461
305
500
685
603
367
434
560
740
316
350
578
721
420
317
517
678
572
359
405
589
716
318
378
546
727
426
280
479
751
494
372
501
540
670
372
397
565
664
490
330
477
688
553
357
446
557
728
314
370
547
739
430
306
521
654
685
274
536
568
715
322
362
548
717
392
357
500
718
576
342
424
554
714
412
366
554
728
394
310
503
760
547
363
438
513
754
322
377
549
717
426
302
510
687
612
331
436
558
728
297
390
594
685
411
252
563
684
615
362
432
578
721
270
424
566
674
488
305
512
728
568
320
440
562
713
358
365
559
719
422
274
541
685
552
325
435
555
750
328
381
548
731
430
320
504
703
636
318
437
557
737
304
373
556
746
413
348
463
788
564
307
461
583
693
323
377
550
719
423
326
533
739
572
320
451
574
699
329
399
544
745
422
350
458
699
587
277
449
597
750
308
385
537
718
439
305
493
746
601
308
436
590
689
324
391
553
727
432
293
514
796
547
306
434
602
676
310
384
524
714
427
322
496
731
554
301
418
641
677
305
378
528
716
443
316
493
755
603
291
430
617
685
346
347
507
717
408
339
512
750
539
325
441
643
656
301
382
537
697
413
331
524
722
604
297
450
630
663
334
360
507
740
392
369
549
730
512
311
431
613
670
327
363
497
703
449
313
516
741
536
311
442
608
715
357
386
497
701
424
334
497
728
530
324
453
677
642
318
389
529
679
442
296
596
731
517
325
457
657
637
333
378
503
705
464
332
541
756
467
300
473
632
651
326
374
491
688
434
342
511
750
497
361
440
652
687
326
322
582
658
406
395
539
691
587
250
498
683
636
298
403
494
719
428
349
522
769
487
302
465
683
632
335
407
495
707
417
317
535
721
448
273
472
668
649
290
411
510
687
383
360
549
737
498
272
469
677
645
320
415
532
685
393
356
545
747
496
314
469
689
600
347
403
551
688
381
366
516
738
441
332
464
686
637
328
392
561
640
451
238
538
795
483
327
460
677
615
373
364
522
720
377
363
518
743
479
306
471
685
632
334
408
547
705
377
338
574
743
460
315
547
597
693
348
404
542
731
338
320
570
747
444
296
491
673
610
357
418
552
693
346
362
490
745
429
294
531
663
638
377
413
536
752
333
346
547
747
451
303
491
685
636
366
430
566
686
331
339
558
690
451
311
489
749
597
348
409
576
733
380
346
537
788
440
293
503
652
622
359
403
558
777
338
375
534
734
428
312
492
686
619
341
428
497
798
361
314
573
725
428
305
501
677
629
358
447
548
739
345
368
553
730
450
302
471
677
635
363
428
544
749
330
321
532
751
463
309
493
714
610
340
453
536
747
330
392
511
744
431
314
499
666
685
367
452
518
726
305
372
551
685
473
331
500
684
606
341
466
530
747
305
384
530
733
463
326
462
680
675
293
491
526
793
273
418
536
740
447
313
486
705
578
331
412
535
776
310
379
561
690
476
311
515
686
542
388
375
545
739
337
371
541
713
433
316
500
714
670
299
418
550
799
305
363
533
764
414
318
502
688
626
313
443
555
729
354
381
563
669
444
332
482
735
627
270
442
568
666
370
371
575
698
446
329
521
715
573
316
439
552
713
326
384
546
719
435
292
482
779
537
338
435
560
762
316
377
521
721
424
347
508
738
557
302
450
577
677
336
366
574
713
415
321
540
720
561
320
465
582
731
302
398
543
724
420
324
514
770
520
342
434
636
681
298
417
534
723
417
314
511
746
567
335
457
588
666
333
359
537
768
410
302
534
730
539
308
417
611
702
331
363
540
697
432
315
522
717
574
333
410
653
663
303
441
469
718
389
365
484
761
616
296
417
628
686
340
324
535
718
451
316
510
728
570
284
415
665
677
321
329
545
730
448
300
497
757
521
310
404
665
685
318
347
524
742
411
328
528
741
507
292
430
656
649
346
372
537
685
382
335
555
722
481
319
453
641
658
282
411
467
687
459
312
586
722
517
337
462
628
655
326
358
490
707
424
348
514
727
523
309
453
682
666
305
342
480
685
395
339
531
717
506
319
449
643
681
323
379
503
682
434
324
526
736
501
321
489
660
637
343
344
521
762
440
317
505
718
531
291
469
664
660
335
353
519
685
436
350
499
746
535
291
463
628
767
330
323
509
683
444
334
504
721
535
341
451
673
645
313
385
512
670
438
350
530
719
500
323
496
683
668
287
454
475
685
432
353
519
740
499
300
462
684
629
349
372
521
686
427
325
535
723
539
318
498
711
655
293
413
548
648
446
352
531
737
483
300
458
686
636
335
380
543
670
457
353
544
723
510
345
421
686
629
407
345
566
679
398
356
537
687
513
290
434
685
629
329
392
533
686
393
334
487
818
473
262
512
706
653
298
387
561
708
380
349
540
726
485
292
441
732
628
336
404
536
680
354
346
536
710
524
258
444
688
659
360
375
520
687
358
348
539
740
476
290
473
673
642
350
442
557
693
366
350
524
741
501
277
487
696
586
362
409
553
685
328
386
530
741
470
308
491
657
662
359
406
556
689
374
328
523
753
461
323
450
670
641
351
420
574
710
349
310
577
723
467
308
485
685
634
329
417
575
724
342
368
534
734
439
315
490
649
591
374
388
603
723
311
374
515
745
468
289
514
685
637
349
416
562
728
337
367
536
735
453
303
475
674
626
364
399
536
743
399
357
551
726
442
318
472
696
610
338
470
561
685
356
405
522
753
435
279
471
720
648
334
434
573
720
301
350
529
725
462
308
481
685
650
350
420
542
762
336
360
508
729
501
273
548
687
586
337
408
543
744
356
342
567
714
419
294
537
688
616
333
441
568
746
327
374
549
736
447
303
502
738
591
345
404
638
763
310
373
551
734
422
289
506
723
645
353
442
525
762
334
364
543
749
458
308
490
731
608
346
424
545
738
321
446
512
751
437
313
507
719
592
358
418
563
750
320
394
554
735
415
321
507
685
618
353
426
549
741
327
361
546
745
427
311
481
738
613
337
422
516
796
310
364
594
715
421
264
526
745
621
356
439
552
726
294
352
520
749
458
326
515
715
619
338
414
539
733
301
427
549
713
424
291
448
787
549
346
544
546
704
324
350
491
717
490
301
544
686
562
380
498
575
725
339
349
572
660
429
329
517
737
570
259
341
551
908
355
376
538
649
450
355
458
739
633
313
374
491
732
443
387
549
737
374
250
538
781
603
353
411
469
833
294
352
652
738
406
291
486
734
643
354
422
546
694
292
414
546
712
440
322
472
709
566
185
463
673
686
328
401
536
632
340
374
566
827
615
314
401
470
788
330
360
568
748
414
261
469
733
621
340
430
559
690
341
380
520
750
397
351
545
674
823
314
398
582
689
271
234
590
813
425
317
515
730
556
242
413
616
715
346
383
511
710
406
380
488
753
616
299
445
558
693
365
365
479
688
464
288
506
772
589
266
444
576
656
354
366
542
706
435
329
492
725
573
306
446
619
676
371
372
507
767
399
277
527
787
545
320
445
644
627
360
376
504
716
447
301
467
723
573
325
444
568
681
305
396
503
739
437
323
487
686
561
335
436
582
686
313
365
492
750
409
332
480
776
586
315
466
609
711
335
351
492
722
428
307
494
748
500
405
427
600
715
308
363
470
681
465
322
494
734
536
311
453
567
719
339
342
489
733
432
284
536
745
512
310
425
657
661
347
324
577
652
464
338
481
764
539
291
433
686
616
362
357
535
710
391
327
542
741
509
316
459
658
631
340
376
493
749
409
345
477
772
516
281
453
650
686
303
373
512
669
412
367
513
721
513
318
469
641
639
367
380
514
671
440
375
499
685
537
313
441
654
664
292
349
538
686
412
351
449
773
457
356
461
685
675
311
329
457
677
472
379
491
681
605
308
459
687
647
363
333
482
730
432
356
541
732
468
320
439
683
653
333
334
562
674
401
364
491
784
511
315
454
686
633
327
379
509
683
445
331
512
738
503
283
476
642
675
390
351
478
766
453
317
477
751
510
299
424
679
675
360
371
500
693
393
373
516
741
512
301
429
707
575
367
428
500
718
391
351
548
741
475
317
456
653
648
308
383
543
687
424
334
539
723
499
313
459
675
610
302
406
533
675
426
355
497
753
476
302
454
680
640
347
388
531
687
419
347
524
741
466
292
457
655
652
432
366
518
745
396
323
560
740
428
336
462
684
600
375
404
500
685
449
328
575
794
473
284
461
672
631
308
373
513
763
404
329
551
740
455
297
460
677
648
325
399
521
684
406
344
509
744
487
281
451
653
584
414
393
543
707
394
341
500
740
506
304
450
689
559
413
394
531
686
424
388
511
746
455
303
449
686
597
341
446
550
654
351
353
502
742
511
292
443
683
681
308
435
532
686
387
349
512
747
480
249
505
661
608
359
400
552
683
364
392
554
711
506
311
484
685
616
335
407
537
686
380
370
510
762
451
312
464
676
601
331
435
537
732
357
313
578
738
429
317
473
687
613
320
378
531
719
361
357
521
698
502
276
443
737
612
350
392
543
742
334
354
543
737
419
309
463
681
618
344
378
608
681
349
340
562
727
495
288
478
682
591
341
483
532
680
357
337
543
741
473
304
440
686
584
338
411
583
674
337
384
520
752
409
395
444
682
614
355
399
546
691
345
358
548
749
425
289
479
678
601
375
430
586
680
378
436
492
732
439
308
449
730
624
370
425
567
720
317
327
553
720
481
334
467
671
572
374
407
580
687
407
375
505
705
423
339
461
626
648
398
395
573
686
383
332
523
733
397
334
504
679
614
380
414
544
760
353
360
529
686
465
283
482
685
631
345
404
539
689
395
349
536
696
462
255
551
681
588
348
481
527
735
347
357
546
739
428
299
478
682
627
369
393
565
744
340
355
554
684
528
288
463
716
622
334
426
496
780
337
351
565
694
417
350
483
686
606
376
410
551
725
329
353
575
726
435
323
490
645
627
409
397
563
749
318
373
505
740
398
308
492
679
595
341
392
592
736
301
426
554
734
395
334
439
731
572
406
407
547
754
321
360
585
714
462
312
477
679
623
359
416
533
760
346
341
493
743
489
290
458
692
615
364
422
541
779
283
425
528
687
498
289
488
672
594
326
429
576
722
332
377
559
706
443
298
489
660
651
357
426
535
815
337
320
585
685
472
300
485
684
618
348
425
511
789
313
374
520
739
442
318
498
686
567
404
413
531
740
315
373
549
724
453
305
543
685
583
324
462
570
753
323
374
555
734
392
322
500
716
612
340
409
536
775
340
329
597
730
454
305
515
672
613
343
425
552
741
340
410
553
736
448
319
497
684
601
347
401
581
763
309
386
555
744
444
298
505
676
635
369
426
550
737
357
340
532
754
433
251
525
685
630
353
396
523
778
344
344
503
754
457
312
506
684
645
346
432
489
769
360
372
550
735
400
327
507
687
599
355
435
524
757
334
370
563
731
434
312
504
716
610
342
414
554
741
340
398
558
723
406
328
485
687
627
378
372
557
770
303
348
567
770
431
319
487
686
607
347
443
546
757
358
352
548
715
445
338
481
711
567
360
442
531
735
337
367
571
751
399
315
521
680
634
369
419
564
764
303
395
539
741
407
313
489
703
624
336
410
547
757
353
330
553
724
439
315
471
646
674
325
417
544
771
322
364
555
691
509
316
477
697
591
340
427
545
742
334
378
556
726
456
304
491
682
627
363
424
553
757
309
372
495
743
431
301
472
719
615
341
417
526
773
320
345
540
700
468
304
481
684
624
354
425
544
759
315
365
541
732
434
310
505
687
593
344
430
558
743
360
353
580
718
456
307
485
678
642
363
437
544
765
337
398
511
728
453
302
520
683
598
395
413
527
757
362
324
567
730
450
286
518
705
600
359
422
543
750
319
362
557
742
406
339
494
727
593
322
463
523
741
332
411
559
727
425
306
503
686
591
365
417
547
757
357
388
537
736
419
328
492
689
606
317
426
505
805
326
355
586
709
400
332
488
711
581
352
404
582
742
310
399
587
728
386
345
527
686
586
356
440
536
718
373
392
509
742
452
302
472
730
597
374
422
577
769
325
336
565
752
397
311
495
685
612
351
421
543
765
333
381
543
717
447
311
476
686
635
333
439
552
754
332
370
550
723
451
313
498
691
604
327
461
557
743
333
370
518
700
460
320
496
690
587
321
476
522
748
376
386
529
685
434
301
488
687
640
330
409
540
759
337
367
516
760
449
297
521
685
644
321
420
575
717
309
425
493
744
470
307
464
686
588
372
425
548
746
310
367
530
727
466
306
475
690
595
