408
498
529
509
532
500
563
606
618
444
498
532
513
570
504
534
567
476
470
457
677
442
436
486
699
469
520
525
582
540
510
615
347
746
528
469
634
469
653
612
407
1023
649
736
592
692
712
343
534
95
533
507
460
576
627
699
569
627
38
724
468
456
583
514
531
411
586
602
620
572
698
450
775
517
265
1022
769
698
557
199
575
500
393
478
576
744
516
496
491
554
396
571
747
44
703
805
491
6
492
375
612
570
1023
885
419
7
638
703
512
489
576
597
796
422
464
656
705
476
365
564
931
479
356
660
629
407
456
496
539
517
413
467
0
0
667
574
0
748
0
687
0
584
230
855
542
663
674
353
454
644
554
612
469
1023
405
543
0
700
30
616
0
420
375
484
594
0
697
165
852
311
54
815
598
491
731
511
598
443
480
480
861
691
443
196
644
64
689
149
541
830
449
318
440
489
507
508
556
664
653
426
515
580
539
542
463
471
643
474
530
524
588
504
454
859
574
1023
672
243
1011
895
329
640
622
673
482
0
512
0
797
488
681
561
531
537
564
402
0
637
430
477
479
723
441
458
466
667
513
453
514
551
567
406
515
537
574
500
506
464
714
527
473
517
657
617
386
465
492
662
494
461
482
637
468
501
523
496
536
589
659
48
733
0
158
497
219
989
485
467
930
755
549
283
600
809
457
193
981
262
474
549
468
642
1023
695
952
557
651
398
0
496
40
1007
514
601
663
652
526
443
547
527
497
451
523
648
523
530
506
309
1023
583
592
846
376
497
856
558
546
771
501
76
31
467
597
612
30
721
0
765
0
885
367
522
547
649
541
378
677
504
553
593
534
630
565
661
505
105
1023
0
581
230
698
611
460
444
560
577
464
517
565
504
532
461
698
608
527
489
534
499
671
460
479
541
543
507
450
561
531
662
489
480
478
580
455
654
488
552
674
490
544
495
617
467
444
582
658
423
494
477
613
478
460
507
511
577
499
518
487
619
443
515
498
567
507
450
548
574
504
519
552
468
612
465
453
623
0
534
606
561
699
589
675
505
480
633
505
585
429
546
0
625
548
9
697
418
539
758
643
423
425
490
616
610
499
475
570
591
468
400
496
619
502
482
563
698
468
296
844
424
761
210
47
904
226
768
490
329
617
24
520
455
623
733
455
814
544
843
869
364
632
583
605
556
470
456
451
471
555
543
614
692
550
442
608
570
472
337
698
578
660
682
550
565
404
475
450
575
542
445
455
501
638
401
566
557
619
443
487
453
0
508
539
475
660
660
494
498
463
616
537
427
496
591
588
414
523
610
547
413
545
663
580
522
611
470
693
529
468
517
454
575
507
580
518
597
472
529
453
494
601
459
535
578
520
484
484
446
549
532
503
535
511
577
453
571
506
551
493
454
532
635
438
499
515
578
470
479
539
475
653
527
456
540
534
522
514
636
531
512
524
421
547
596
437
502
551
566
468
482
434
687
515
557
487
568
550
606
426
525
560
592
411
475
0
542
484
509
580
550
446
450
544
642
680
578
750
659
0
598
253
1023
754
487
684
787
766
452
689
578
538
491
498
524
599
535
518
471
556
616
436
476
482
645
460
465
721
589
555
491
493
553
537
522
500
468
652
583
382
511
630
473
403
540
588
547
451
561
484
662
466
461
504
605
586
449
513
668
544
416
467
507
669
492
495
512
586
551
493
475
606
585
517
459
564
558
436
495
574
503
547
600
500
690
547
503
487
477
628
485
419
642
588
485
558
472
533
697
434
467
528
624
466
424
493
604
492
524
610
524
529
403
569
598
551
580
530
521
516
502
470
493
594
579
465
511
487
617
484
472
507
591
534
496
485
487
648
442
438
640
615
494
539
441
570
527
512
0
563
174
548
658
1023
556
678
743
486
608
488
504
0
555
226
804
525
712
600
507
531
613
538
506
592
441
560
570
507
502
499
552
497
520
447
617
647
505
0
598
261
732
525
443
0
570
435
477
617
631
534
366
945
230
543
537
666
599
406
464
494
500
582
501
501
693
566
432
474
599
516
489
513
422
616
514
514
487
595
645
449
545
517
627
478
503
628
615
478
376
603
631
488
480
505
524
583
497
484
447
599
538
357
607
619
540
448
500
521
564
507
461
451
613
556
460
0
634
607
563
505
284
1023
358
530
646
841
478
522
383
605
567
485
511
543
544
450
858
503
27
526
539
699
650
521
577
610
443
0
543
440
502
589
624
603
464
563
531
441
533
520
615
487
463
409
687
470
505
590
784
503
462
617
473
599
470
513
498
566
533
462
519
640
502
473
513
562
640
446
525
469
616
508
443
496
573
551
624
445
525
647
461
336
475
768
459
468
604
537
529
441
606
534
586
461
457
500
635
508
494
471
560
517
496
485
554
633
418
479
487
643
507
454
442
625
503
461
468
635
581
459
464
521
585
474
517
543
608
489
490
608
548
0
531
493
499
665
479
453
657
597
512
585
600
805
596
675
538
0
1023
493
765
660
795
529
470
479
569
540
490
412
510
589
636
518
828
647
630
509
491
622
602
426
493
743
629
446
499
546
558
508
478
430
624
646
476
475
506
587
447
497
603
594
501
473
656
651
577
531
624
494
796
451
462
484
657
478
495
506
547
537
471
438
493
272
488
3
735
548
734
473
557
609
555
424
500
489
598
447
475
537
529
699
461
464
605
85
583
457
498
679
465
486
491
583
465
480
566
537
614
414
557
547
548
508
491
452
560
594
431
514
583
507
478
527
487
533
576
523
462
583
547
452
480
616
534
455
569
501
706
436
489
506
605
496
480
480
514
598
560
464
510
665
467
512
412
626
495
460
646
591
547
472
530
489
600
540
443
485
600
531
480
384
488
739
447
492
601
592
476
431
603
596
515
527
497
533
455
550
457
644
556
469
499
493
543
519
589
489
513
562
479
506
501
649
489
504
482
599
504
476
521
513
578
549
502
546
636
421
509
561
561
549
474
520
511
532
468
477
552
643
426
487
491
607
526
460
494
591
531
444
484
793
1023
912
631
0
761
357
567
481
467
688
2
661
634
662
644
447
427
636
529
541
699
523
529
486
462
543
665
457
471
411
561
606
470
493
594
588
441
482
552
0
645
643
180
1023
668
622
661
586
505
466
385
378
121
1023
502
498
725
556
445
457
549
0
521
437
554
655
459
502
492
617
541
422
484
699
540
471
519
530
598
404
485
542
658
541
474
498
616
551
518
454
556
550
409
502
548
496
583
552
433
600
606
480
491
542
595
416
483
509
639
495
473
533
552
503
538
484
554
604
452
524
481
610
503
540
428
563
589
452
560
562
570
451
479
558
602
485
505
488
570
543
493
491
569
618
458
477
478
617
444
461
598
611
539
479
530
513
489
507
493
493
634
467
474
504
597
0
566
485
641
590
473
520
471
627
453
473
626
553
532
502
490
501
626
416
538
547
622
503
490
455
574
491
407
560
662
489
442
624
505
572
498
491
447
517
616
478
527
597
528
514
476
496
555
528
500
503
527
505
464
611
559
558
507
429
529
648
473
521
498
584
486
459
472
582
631
496
519
521
511
571
454
471
650
515
368
499
629
550
511
0
134
605
412
607
608
605
537
529
532
556
485
476
545
469
556
445
511
442
644
0
537
577
545
554
627
494
265
1023
717
740
723
635
656
482
699
609
504
499
552
566
582
477
474
471
514
651
525
456
583
579
484
491
498
554
450
508
500
564
516
698
528
804
0
559
607
528
657
479
456
441
616
492
455
297
658
0
559
0
712
610
613
517
618
626
560
428
567
604
508
459
468
518
561
443
456
503
623
537
531
510
547
558
438
587
494
620
499
506
488
589
553
441
577
537
581
484
493
512
552
465
539
475
580
526
439
571
535
518
647
441
538
590
465
490
473
576
503
489
509
615
558
466
513
513
559
453
503
574
581
505
473
465
655
513
451
540
508
589
554
455
469
656
489
476
500
863
506
426
583
529
670
426
466
426
655
483
421
515
581
503
420
504
590
547
483
555
546
555
525
538
408
628
552
452
568
542
598
422
476
478
590
562
479
469
629
582
508
455
544
687
461
489
489
652
471
466
562
532
547
492
497
549
580
418
615
427
724
463
450
595
521
481
522
508
527
639
484
442
510
630
492
477
512
612
478
425
575
534
560
501
566
516
560
462
642
523
521
528
546
492
505
518
478
480
548
618
503
463
533
690
586
504
515
536
558
538
411
493
652
563
478
455
541
503
535
475
574
638
459
465
519
638
459
535
472
682
435
516
527
585
552
467
439
502
643
462
478
512
544
473
515
509
568
650
413
537
505
503
571
485
420
669
533
451
511
545
494
410
579
499
610
0
132
409
478
5
645
567
563
636
451
467
474
567
472
459
509
668
506
399
506
695
592
448
516
550
602
471
465
442
551
596
439
516
610
577
450
490
496
621
490
482
482
596
508
483
517
561
581
480
463
534
621
471
526
542
587
428
558
489
536
637
447
563
474
582
486
468
476
609
588
448
500
544
624
505
478
506
600
572
462
464
600
518
467
612
553
604
517
555
486
609
504
497
481
650
485
496
489
509
555
470
470
536
612
453
631
456
543
551
476
478
564
534
503
504
519
623
457
466
450
660
543
432
589
537
512
541
507
482
620
519
446
451
603
529
478
457
608
495
439
531
525
658
495
467
503
552
512
463
518
536
555
503
466
548
659
471
506
466
586
466
464
592
568
633
481
439
616
618
513
486
541
584
515
419
524
569
548
489
576
497
629
453
465
490
580
462
489
535
572
614
481
433
626
611
407
543
480
567
512
394
532
626
515
451
598
476
570
424
537
467
533
557
480
505
556
554
446
512
545
560
485
432
516
575
592
468
642
481
547
478
493
512
593
492
493
480
555
530
493
498
537
571
489
473
620
547
480
491
488
798
485
459
560
559
536
489
475
544
590
466
509
483
571
547
498
453
625
491
448
512
608
617
435
513
433
566
577
437
537
506
532
407
476
538
550
506
526
432
604
503
477
552
564
501
464
529
500
666
449
460
498
675
403
519
525
564
595
473
435
522
623
441
515
517
598
483
549
462
575
556
444
478
402
742
474
510
508
585
477
482
448
595
448
711
736
773
648
628
566
658
620
432
545
234
513
554
447
475
543
666
574
519
485
610
527
526
452
644
543
496
529
448
661
558
393
534
504
596
450
809
832
398
445
1023
0
592
638
621
972
590
719
506
102
647
501
504
549
11
581
0
527
596
583
513
478
642
499
515
545
494
558
567
454
464
337
782
510
623
543
179
583
517
651
474
756
0
398
454
491
507
554
742
375
644
639
420
544
550
529
22
595
639
517
699
597
289
466
471
613
741
785
541
413
472
557
434
518
550
501
518
413
523
541
615
420
423
169
864
552
647
525
376
725
664
680
678
677
495
507
471
496
581
681
515
329
857
521
483
827
738
390
505
535
531
423
490
475
588
488
447
499
597
537
455
503
482
651
444
463
580
6
657
519
681
676
846
433
529
488
655
488
494
504
542
507
475
560
491
594
0
698
474
574
548
512
501
0
526
459
626
616
883
437
627
551
538
560
477
465
562
471
645
684
590
439
536
433
548
581
470
566
539
599
445
495
513
544
594
443
522
534
769
502
488
558
564
528
463
480
534
599
449
488
491
584
470
517
497
582
449
475
578
674
985
571
499
439
1023
654
498
138
712
500
476
698
574
121
1023
544
1
650
530
517
775
64
697
470
738
529
527
779
531
148
587
0
662
494
556
542
623
528
591
463
0
587
509
588
591
432
443
586
546
704
697
502
133
636
533
564
644
505
491
451
558
281
478
441
643
629
438
494
470
696
257
500
681
578
544
490
478
561
589
418
512
547
756
467
475
575
30
641
459
481
699
653
479
702
527
774
402
463
465
667
469
448
642
731
556
568
534
435
685
439
421
593
673
491
438
415
727
472
502
571
516
608
457
439
533
570
542
541
531
557
513
452
520
545
590
503
470
475
534
462
531
493
639
549
483
476
498
518
517
506
473
601
537
466
518
554
547
474
484
145
662
0
512
0
765
0
759
416
797
729
553
498
1023
576
467
497
532
621
519
430
457
562
577
491
505
536
786
499
503
471
621
565
451
500
659
576
465
509
523
605
403
534
477
645
531
450
456
520
656
421
421
551
696
405
490
497
554
521
529
504
579
566
471
529
93
640
0
549
0
784
263
761
537
0
647
592
475
393
948
437
548
581
586
548
460
347
575
527
0
513
490
698
451
456
521
565
470
492
472
567
695
464
465
529
541
476
479
386
665
635
438
588
479
537
619
457
518
609
535
487
441
573
574
493
489
524
547
530
495
537
606
497
489
426
58
660
415
619
630
663
461
947
567
0
613
682
500
716
536
713
534
748
527
459
518
574
593
478
477
479
550
559
493
505
569
541
440
528
527
559
470
508
613
522
543
497
614
528
541
449
452
534
622
453
531
495
535
546
483
472
532
599
483
494
514
602
496
459
449
595
521
488
483
698
495
442
552
570
633
441
508
478
543
523
473
495
623
527
466
503
523
598
490
502
455
536
557
478
506
618
456
433
563
498
628
479
502
496
512
478
529
546
556
498
492
520
517
587
486
698
452
761
582
161
1023
708
765
642
267
635
626
490
478
561
685
532
425
695
549
70
583
513
538
651
495
490
548
471
542
598
490
602
549
475
500
0
533
442
791
505
774
684
498
459
527
466
0
680
541
521
493
689
425
774
518
678
577
606
540
436
549
509
530
528
493
470
618
174
509
500
618
577
514
492
572
554
463
523
443
534
612
464
519
566
598
512
482
510
846
469
527
491
561
550
493
509
533
503
483
486
643
644
499
478
472
573
477
483
501
551
561
614
495
667
622
400
891
96
937
138
472
530
543
608
575
665
406
698
0
553
513
117
629
551
723
541
981
531
480
647
795
412
448
534
50
518
454
942
612
506
12
646
444
616
0
740
576
28
669
470
733
539
747
490
502
82
689
0
379
173
489
553
665
274
743
0
532
142
575
603
485
496
611
161
536
468
1023
588
544
500
514
553
784
477
444
452
695
551
426
484
648
503
508
508
505
629
457
33
980
224
612
522
688
807
583
469
750
502
519
537
415
384
302
769
760
384
699
315
421
361
548
695
551
604
722
118
587
506
494
729
532
404
530
595
575
453
453
450
593
462
485
604
560
558
0
565
489
623
484
565
502
304
558
502
455
698
336
533
464
579
649
531
587
502
522
649
499
494
644
539
437
439
520
628
445
506
535
590
480
430
546
569
312
116
848
482
463
398
380
555
592
498
570
1023
916
515
478
427
558
595
444
628
508
689
512
481
549
564
567
553
481
501
603
490
594
451
560
549
442
647
510
518
190
629
800
792
0
813
0
750
514
551
668
590
428
504
471
394
1023
352
639
600
651
510
437
626
544
3
348
697
490
570
698
402
471
509
527
436
510
595
505
479
493
536
604
0
659
456
308
598
608
508
696
654
578
522
369
543
811
700
739
355
578
407
688
642
467
356
517
588
580
520
622
624
610
466
454
496
698
454
473
588
488
552
448
470
502
590
508
551
820
793
858
692
760
434
521
563
609
289
537
458
659
518
865
703
636
277
70
590
0
481
656
103
566
551
489
566
603
537
460
826
616
666
517
445
623
465
475
576
485
485
0
612
497
561
487
464
358
526
496
491
777
979
101
496
167
570
69
493
803
593
610
175
673
495
514
625
521
467
464
728
429
515
559
607
465
408
451
667
706
447
558
542
780
440
880
522
319
648
534
739
505
566
483
562
770
579
711
611
469
845
530
180
476
478
530
433
604
657
669
468
423
489
599
518
495
516
586
535
471
489
617
664
88
649
697
574
525
555
497
507
535
463
466
496
586
428
453
501
595
498
487
510
564
595
4
572
23
596
9
612
47
689
573
389
529
756
526
575
603
698
587
445
519
629
532
100
293
582
808
631
522
560
520
620
462
472
479
568
496
448
476
583
552
558
414
560
911
511
405
574
649
491
481
447
542
578
430
517
642
631
497
479
489
560
544
507
475
563
523
547
511
528
604
539
474
452
649
492
540
530
540
545
490
546
535
605
479
469
458
619
530
487
560
579
566
565
473
682
621
505
534
985
236
797
584
796
728
524
0
616
774
543
430
588
542
823
501
373
518
688
527
480
496
476
549
487
519
449
591
321
522
544
543
549
520
480
471
634
471
499
473
594
547
457
447
642
567
426
553
500
616
507
453
561
493
540
549
499
576
551
480
508
422
638
572
469
519
634
505
447
467
636
549
505
508
498
552
489
493
545
544
555
485
459
641
471
596
469
519
628
467
465
529
509
564
524
482
672
529
446
497
521
564
473
451
464
554
610
477
494
619
540
478
493
528
551
475
582
471
753
568
723
535
0
738
618
525
712
635
492
486
443
522
88
486
488
592
586
471
555
558
586
494
454
479
582
504
528
460
618
570
454
476
446
816
0
499
476
641
610
415
505
569
539
448
481
525
599
445
653
664
709
544
707
540
872
517
479
560
612
619
466
466
413
648
508
493
544
501
569
505
426
559
640
461
518
489
652
516
479
507
604
540
444
490
534
582
502
470
517
547
537
487
511
557
615
472
491
535
607
470
480
472
589
557
485
520
534
533
554
530
517
632
502
452
457
637
525
441
503
560
590
394
542
530
541
505
600
470
570
558
413
496
603
520
440
506
536
826
512
455
520
681
532
436
541
672
483
467
609
488
564
486
518
461
610
528
498
462
569
548
536
532
478
587
534
492
476
562
529
492
524
529
596
458
479
543
520
471
616
491
622
518
449
517
522
634
498
479
539
614
483
450
489
634
519
468
579
540
581
419
490
523
610
587
465
558
654
506
439
469
628
607
452
529
482
544
546
472
564
558
9
502
516
526
653
486
557
507
611
476
474
494
590
497
492
523
550
592
528
440
502
620
487
484
551
551
531
441
499
608
597
479
493
506
639
455
443
486
709
497
492
612
514
530
449
535
487
584
529
508
483
501
652
488
526
587
581
454
456
485
565
483
506
532
552
550
425
517
568
547
482
522
554
628
481
468
613
593
513
490
454
554
686
0
112
864
665
484
761
665
766
532
682
528
730
588
71
750
89
558
509
528
557
553
348
466
548
240
362
726
252
467
686
624
592
501
333
643
14
656
680
632
504
473
433
741
459
506
528
609
581
307
534
606
475
512
490
497
551
523
510
499
524
528
466
505
696
756
470
698
286
621
80
587
88
505
492
504
517
812
832
352
677
430
723
0
683
509
614
527
474
550
524
525
435
512
509
612
445
506
491
654
521
485
469
510
677
388
469
556
618
484
447
496
624
503
465
521
553
586
430
506
494
586
524
539
514
535
314
640
376
568
664
453
501
440
602
490
490
516
571
514
461
473
516
632
472
520
474
545
542
440
493
594
502
432
467
615
532
467
530
484
571
480
501
497
548
530
554
631
621
1023
485
863
409
787
55
461
390
672
613
715
645
633
636
356
472
552
626
484
412
554
540
556
470
504
656
496
472
497
232
679
402
633
509
831
503
826
698
704
294
462
1005
458
617
600
751
522
475
495
427
473
527
633
417
501
512
587
483
471
495
622
56
496
561
473
613
591
456
464
651
452
412
595
600
592
442
516
514
585
462
474
492
785
513
549
447
623
561
522
492
549
561
466
475
479
535
601
452
501
579
579
479
458
554
601
419
573
444
568
549
496
538
561
534
459
500
527
538
513
520
447
600
639
442
485
569
571
368
524
636
594
467
533
474
555
498
486
496
606
556
458
502
547
569
454
512
462
570
583
440
589
578
553
450
507
473
622
564
476
504
577
510
501
493
574
100
141
714
636
166
680
578
535
541
571
508
537
533
555
415
482
482
585
485
490
489
698
574
504
430
608
640
416
539
478
572
563
452
475
658
505
501
455
570
575
473
492
579
578
429
481
511
609
502
500
497
554
559
478
507
527
612
478
492
478
578
505
461
457
536
692
447
482
556
591
461
478
491
592
513
489
452
559
569
447
504
562
519
154
596
427
597
565
682
456
747
585
142
448
508
527
496
597
902
776
669
620
617
393
318
625
335
970
558
505
617
0
531
462
392
554
576
551
465
573
430
584
531
493
434
826
585
448
525
605
590
482
418
528
632
427
469
513
657
459
480
570
470
585
451
543
665
582
438
487
478
689
553
503
522
578
533
446
536
493
1023
491
0
126
611
0
692
566
589
597
461
547
460
521
451
517
526
553
445
531
528
529
529
464
670
431
576
213
585
427
628
0
860
514
416
685
492
611
496
585
46
710
469
592
550
669
453
799
30
573
846
550
239
607
0
431
595
578
533
606
838
25
615
552
484
620
395
436
508
771
538
465
534
601
528
455
546
456
576
509
499
471
611
516
481
491
575
576
472
421
651
671
509
530
498
620
520
427
508
538
606
465
474
606
573
501
489
530
617
496
451
536
563
595
448
648
604
687
467
4
506
1023
0
1012
609
817
668
590
501
621
616
20
457
595
0
1023
669
530
519
586
625
534
637
658
542
514
526
618
548
528
507
401
134
481
523
517
639
499
456
486
552
515
487
509
518
615
461
453
460
751
408
468
564
843
510
426
567
568
550
452
515
415
580
569
519
504
587
503
464
454
526
663
457
502
504
630
424
505
541
577
541
413
570
553
567
453
542
461
593
465
481
540
640
505
458
515
506
579
485
496
496
630
485
481
415
575
698
463
510
588
574
387
576
427
567
565
558
464
530
528
465
510
512
578
497
463
496
695
466
518
501
563
450
465
598
508
129
791
655
461
627
685
0
545
0
605
0
431
1023
182
1023
636
702
652
509
434
473
653
526
481
442
549
608
454
474
469
589
511
462
480
625
461
521
473
522
638
502
465
606
605
487
466
514
651
476
428
566
550
544
395
578
461
566
509
524
507
558
559
450
530
507
586
480
443
479
625
501
479
524
597
537
517
502
531
519
484
502
457
584
295
0
105
659
669
636
385
840
766
569
516
556
523
618
470
353
639
279
448
502
526
493
726
666
745
568
416
568
280
650
0
607
465
503
706
510
697
513
599
580
452
869
823
550
435
488
661
612
387
480
471
588
457
553
521
547
0
532
538
447
658
551
554
609
536
453
505
523
642
509
440
493
510
578
526
464
456
554
542
461
505
622
555
469
610
538
520
467
620
386
574
568
475
506
481
598
511
476
499
630
457
465
470
564
533
517
470
566
638
494
448
537
647
426
529
463
564
513
491
505
562
560
499
521
483
562
491
477
531
524
481
545
517
540
540
472
509
497
543
476
529
468
566
642
446
564
546
581
471
460
530
599
445
483
494
558
532
488
481
558
609
486
476
484
726
448
445
671
978
496
710
99
693
592
535
457
361
563
422
495
570
629
563
505
535
555
530
649
570
531
580
573
503
492
622
583
460
576
633
609
549
532
467
650
487
419
648
571
498
519
572
599
540
424
473
492
506
453
500
302
547
540
544
522
518
655
928
538
537
134
650
454
378
522
652
451
763
537
834
475
733
562
603
408
538
588
537
634
506
342
880
260
499
546
582
40
552
696
470
645
645
571
903
610
540
590
489
239
842
802
558
611
693
636
485
50
516
0
987
326
697
157
624
745
802
19
428
435
420
581
683
541
536
642
682
440
495
534
499
659
456
479
534
582
418
497
486
663
472
516
447
552
571
456
622
522
521
423
485
251
1023
672
492
599
540
149
443
448
491
585
473
471
463
45
530
473
508
654
518
490
517
452
589
528
445
503
639
447
485
493
571
521
453
505
682
579
449
482
542
686
484
485
549
574
527
454
478
465
650
504
446
553
595
503
443
502
544
563
506
483
457
625
462
476
548
542
506
508
472
580
538
439
495
531
536
460
522
499
547
527
412
512
554
559
510
490
511
595
448
493
497
569
550
473
497
525
380
0
292
631
0
454
518
694
387
697
0
684
609
602
411
164
546
1023
33
645
690
413
521
398
390
482
556
673
472
477
622
450
460
486
541
496
553
511
515
588
437
548
754
603
498
530
483
552
566
445
422
622
532
478
526
545
573
485
460
509
724
458
492
560
522
503
483
490
580
536
503
510
440
591
496
501
509
606
548
465
489
542
550
564
592
498
554
540
447
478
607
545
448
567
507
622
436
495
446
537
588
431
525
559
583
427
512
508
570
489
505
493
568
510
497
498
505
521
480
509
536
515
492
615
401
541
623
452
468
538
537
472
541
461
606
575
455
447
611
495
483
483
549
574
478
532
510
602
466
420
533
651
493
487
526
571
532
441
470
535
581
489
493
589
551
554
503
649
852
663
439
290
749
684
598
542
228
598
71
693
671
778
221
542
417
636
683
606
532
668
721
465
1023
541
627
535
536
514
436
586
466
483
520
557
519
442
471
701
477
525
516
524
555
534
459
515
597
477
494
458
607
602
437
466
502
580
586
450
537
609
478
492
507
502
643
477
488
504
594
454
508
522
568
534
478
509
554
582
427
491
679
696
471
518
486
606
502
464
493
529
588
447
493
474
633
480
491
513
573
493
443
511
546
566
558
506
475
603
512
565
457
577
526
471
609
487
541
484
558
498
588
446
502
520
551
536
487
481
554
601
441
475
428
617
503
483
536
652
528
388
567
493
585
501
516
495
607
463
469
498
524
571
451
587
522
591
488
472
532
723
466
499
549
114
0
486
496
560
607
572
394
467
632
508
434
399
724
622
406
558
614
549
402
474
493
594
515
508
522
584
553
457
505
561
546
538
448
445
649
571
434
490
566
538
460
457
559
602
446
612
464
630
483
452
544
539
626
446
511
583
555
440
474
473
554
569
529
490
564
585
447
481
533
580
495
496
484
553
570
504
489
559
552
439
504
545
499
66
419
493
165
617
352
580
596
595
395
668
555
565
476
461
489
577
506
436
461
431
555
461
508
531
689
463
505
421
545
523
480
626
668
548
476
501
469
610
468
244
684
0
607
258
484
721
740
567
611
575
576
512
388
458
633
229
612
464
556
641
626
651
531
690
450
76
598
696
549
156
560
641
551
42
481
0
609
497
679
582
684
547
553
458
432
605
485
497
485
690
464
463
560
590
454
470
539
489
605
488
533
492
562
514
455
539
540
666
496
0
484
108
676
0
896
726
466
838
522
714
553
546
528
52
651
436
462
475
612
506
544
531
611
652
476
149
461
498
592
15
697
813
507
0
675
489
577
579
299
713
778
423
535
545
664
478
497
474
0
629
454
610
630
1023
524
699
535
616
483
613
468
591
446
429
651
537
596
781
494
600
658
627
490
632
616
530
568
467
551
666
424
468
426
598
459
524
462
643
493
434
497
493
596
557
503
497
603
500
461
458
607
634
476
505
542
600
441
452
498
592
581
494
495
526
556
449
490
557
621
540
520
334
626
0
575
0
702
488
615
545
492
607
485
599
416
658
503
463
654
527
466
500
623
586
572
469
471
469
578
461
501
464
651
482
495
581
521
518
462
573
423
578
531
487
486
555
502
409
534
610
546
495
434
487
652
442
452
530
609
508
475
496
556
538
484
506
485
551
493
501
534
564
557
448
496
606
560
490
485
481
503
503
428
528
645
529
468
497
491
674
466
469
519
596
545
487
461
572
574
474
487
80
391
647
518
285
726
536
544
492
480
505
405
413
580
740
558
546
469
523
553
474
514
428
744
575
539
545
490
297
500
480
487
632
491
483
712
609
394
48
587
15
423
468
403
641
349
750
665
1001
554
399
83
481
935
475
486
623
554
697
230
286
1023
344
848
574
557
586
525
467
533
58
670
485
321
534
513
388
551
560
698
490
445
508
649
737
261
646
105
622
168
535
689
622
698
589
133
523
24
638
1
731
333
476
477
247
623
690
543
217
1023
8
306
615
620
821
621
290
647
1023
411
461
784
760
485
226
413
542
475
534
611
578
622
512
381
574
624
481
486
525
583
506
398
615
507
629
573
476
486
538
599
404
481
533
663
463
504
482
613
448
516
493
499
531
554
526
499
641
472
453
545
540
453
472
555
601
523
546
508
549
615
472
449
522
687
525
632
505
772
457
197
468
454
580
562
0
647
679
494
508
460
340
567
0
654
7
747
392
328
369
432
560
491
617
589
592
453
655
440
696
666
456
484
534
482
475
487
604
476
707
544
463
681
439
466
456
567
585
491
514
624
542
426
525
576
566
492
492
561
1023
733
749
629
538
434
287
471
685
552
449
462
415
670
458
517
501
791
473
163
573
0
546
791
603
541
790
610
437
389
501
502
479
487
597
617
468
84
667
694
519
585
89
607
575
461
654
618
609
456
469
538
567
400
552
555
494
601
500
498
499
639
445
500
144
564
403
518
414
664
1023
658
818
658
502
383
472
464
620
445
491
479
453
587
540
698
486
631
501
516
454
652
501
495
444
513
585
470
514
484
578
515
474
480
663
482
553
393
673
524
493
520
497
606
489
462
479
582
473
493
575
461
670
461
459
448
683
521
439
498
641
402
467
536
550
597
493
475
525
586
449
478
609
600
460
503
502
530
484
474
489
531
631
457
464
506
556
527
483
483
560
535
465
506
500
568
490
515
2
870
674
433
358
811
492
743
527
260
866
482
567
495
673
526
491
423
462
584
508
654
502
515
508
488
456
637
517
420
470
682
480
43
579
17
667
441
573
506
696
576
605
548
548
550
477
533
528
559
506
475
571
518
502
519
500
507
534
454
498
529
600
540
449
562
636
537
561
472
503
632
497
512
561
555
674
503
422
600
539
462
480
568
642
456
501
558
647
461
469
387
615
649
371
556
619
537
472
485
483
654
464
529
489
567
516
468
501
556
684
348
523
565
586
475
474
483
632
538
523
509
536
604
475
483
477
643
515
431
486
645
493
447
507
719
479
454
505
471
622
557
507
550
513
611
646
667
541
488
408
41
0
850
535
486
498
778
470
401
381
569
618
433
480
535
600
502
623
491
562
614
494
521
496
550
471
548
451
718
456
448
583
652
661
463
484
547
727
326
493
517
637
451
491
554
476
700
563
628
627
711
478
574
555
838
532
549
4
615
504
430
451
586
552
364
627
502
534
521
479
597
578
630
507
646
612
797
443
622
590
696
520
522
502
614
486
430
510
494
695
441
604
518
637
463
447
501
575
512
687
510
608
587
483
504
489
698
428
508
525
540
542
513
475
544
571
476
432
491
651
473
504
572
561
555
453
515
489
624
513
474
487
560
523
453
476
633
489
524
531
486
493
624
518
463
672
488
475
459
534
532
496
502
544
645
430
587
455
592
527
532
445
680
530
503
507
512
486
461
573
471
597
520
458
506
546
484
423
579
540
630
457
813
489
540
575
455
497
567
522
557
445
542
591
464
459
498
559
508
488
505
548
573
468
478
616
635
0
525
0
680
506
378
517
514
616
765
684
650
633
366
419
407
583
689
472
399
677
646
373
521
697
516
442
544
466
570
465
472
515
0
1023
390
482
724
748
671
476
594
582
707
467
742
708
665
547
529
517
546
461
473
442
303
565
452
1
263
697
338
516
793
628
241
898
0
678
684
507
516
596
534
358
456
511
658
458
617
502
576
475
558
435
535
698
426
525
500
578
450
465
484
598
562
464
449
503
593
584
484
510
622
552
482
436
532
538
546
500
546
580
466
540
489
562
493
446
423
640
541
496
503
564
737
478
37
538
3
466
369
393
567
580
529
655
641
549
561
446
480
733
447
528
455
539
518
535
454
557
518
455
661
538
557
491
490
547
519
461
465
582
632
639
470
535
519
517
426
479
560
513
534
404
492
701
531
595
522
600
540
618
466
505
628
496
445
502
544
653
465
499
543
606
419
459
542
538
507
492
573
560
491
477
513
456
611
465
540
473
540
526
648
500
666
628
443
466
491
590
496
461
528
610
506
424
478
576
568
489
482
586
623
250
842
173
707
521
231
420
840
532
573
814
29
859
204
729
608
599
664
488
443
466
568
443
476
611
609
452
398
533
601
465
519
0
632
520
459
519
523
550
511
510
497
571
480
423
538
566
559
440
512
620
529
509
523
519
618
467
468
518
541
565
505
455
484
619
495
430
504
754
501
466
597
505
717
632
779
524
859
580
699
490
532
565
418
542
471
645
516
549
616
566
492
499
94
489
413
994
747
669
756
571
472
332
587
0
593
86
474
594
428
755
677
749
498
453
400
574
486
522
497
619
597
412
526
504
561
469
597
480
563
486
501
518
587
500
432
36
602
521
486
561
498
593
508
484
474
558
602
426
498
732
517
459
505
567
533
484
646
504
559
539
491
547
490
569
431
451
517
657
480
588
470
530
603
436
510
563
579
471
483
492
529
592
539
533
519
653
441
491
567
689
478
593
502
733
548
500
21
504
446
302
203
790
899
735
537
461
438
569
454
642
472
378
1023
610
746
605
603
52
503
562
1023
482
752
678
565
479
452
507
519
473
521
452
574
581
336
595
652
562
729
30
497
490
1017
254
505
695
672
578
146
604
464
297
408
644
1023
407
576
518
557
645
517
444
571
530
0
522
519
527
511
452
544
588
441
450
504
560
22
669
505
546
921
761
640
346
554
171
534
635
679
572
50
705
27
753
27
619
501
503
695
481
307
566
507
232
436
1023
825
697
627
450
515
49
421
166
872
631
506
512
571
605
462
0
497
599
269
562
77
524
493
683
562
556
745
768
489
379
1023
668
480
499
564
514
419
185
0
773
286
698
512
731
539
529
67
486
482
265
634
499
694
488
1023
561
570
437
467
379
463
541
1023
548
558
677
407
9
584
460
309
397
603
554
593
724
576
588
541
485
406
330
375
1023
1023
564
646
557
659
945
460
699
516
620
605
555
459
438
112
1023
654
697
750
528
744
563
557
498
525
135
869
92
887
556
521
638
419
657
479
455
518
619
505
458
180
749
655
438
500
549
524
521
0
514
637
503
492
662
526
562
352
42
570
599
530
579
461
499
551
526
476
595
666
81
636
427
698
560
530
505
527
923
643
498
673
698
657
448
683
548
545
557
525
539
526
513
413
642
691
384
534
517
952
700
39
549
599
610
468
502
507
528
534
591
437
517
552
484
481
587
553
461
524
578
634
511
457
541
550
513
432
492
631
501
444
535
492
697
473
446
614
610
517
22
527
0
260
0
189
1023
758
663
566
812
732
667
24
635
576
441
363
670
539
661
567
41
493
485
418
472
544
578
543
383
555
502
645
467
486
492
542
542
414
515
536
584
515
558
582
618
461
543
468
494
551
478
472
619
594
412
509
587
617
470
459
595
488
497
427
644
475
277
518
139
546
582
409
544
68
707
609
619
587
488
956
406
424
591
769
479
455
421
556
533
433
560
625
539
405
477
485
533
623
504
524
526
553
490
494
545
636
471
542
477
624
524
390
508
622
490
460
542
530
575
446
487
463
644
497
82
767
589
569
514
575
595
437
852
132
515
809
510
524
554
540
451
379
0
606
554
791
526
500
528
571
528
449
602
522
394
630
487
0
577
195
129
692
620
611
233
784
829
424
540
630
624
458
452
613
596
232
454
522
679
561
503
422
546
664
454
539
505
769
456
436
487
648
585
448
725
566
808
527
595
584
663
501
470
463
628
457
477
511
660
590
468
490
498
600
483
451
523
515
538
490
485
867
108
515
284
544
680
379
654
546
906
666
532
634
519
886
468
449
505
657
480
448
440
529
608
451
535
525
546
656
495
445
596
532
449
502
521
514
465
546
537
587
409
505
490
539
535
508
510
542
600
470
451
577
540
547
443
472
580
550
469
444
561
590
461
498
550
501
492
570
582
730
795
518
698
666
25
482
506
465
307
699
673
700
602
36
394
749
545
636
699
683
495
424
379
507
480
628
514
437
529
536
512
512
528
454
628
458
461
493
625
628
0
559
558
522
468
517
494
558
542
433
493
493
559
514
404
498
623
528
464
551
555
477
517
463
556
542
427
534
557
554
485
526
521
593
427
499
419
503
611
506
525
610
762
791
502
475
781
546
699
492
725
579
642
531
599
645
458
500
0
511
934
479
468
959
0
540
0
585
543
0
459
1023
809
461
732
679
596
450
413
492
1023
623
745
525
861
648
447
743
570
665
638
574
469
476
504
538
520
623
762
523
408
277
552
590
0
611
504
542
531
446
418
654
510
441
503
510
565
535
441
556
578
453
532
436
585
697
480
466
654
495
503
501
525
522
470
501
458
652
533
481
530
485
635
403
538
628
537
472
474
491
579
473
480
486
554
565
445
478
599
616
563
373
483
624
486
458
630
548
529
442
527
497
607
462
455
471
692
476
501
478
626
597
437
519
551
554
498
472
434
620
507
448
492
566
501
527
486
520
695
438
477
490
550
460
542
394
571
611
0
534
477
572
507
498
435
548
576
493
482
512
622
473
504
525
599
490
412
461
602
502
544
464
692
503
475
455
506
559
547
466
479
609
528
456
440
556
473
479
610
533
559
478
477
429
784
418
480
544
546
518
384
533
475
664
512
449
495
562
527
464
505
536
490
431
550
643
596
508
500
465
545
558
470
486
572
508
501
489
493
619
468
463
543
577
512
513
632
532
669
452
447
472
577
501
572
448
747
613
133
720
542
631
77
1023
487
116
1023
502
474
461
625
490
436
503
601
457
526
496
548
486
517
414
635
638
517
492
583
658
393
466
449
631
485
460
495
564
484
564
462
531
580
518
510
552
525
538
485
448
607
483
435
516
628
565
452
540
363
648
0
537
0
723
564
371
630
713
656
544
627
791
603
192
468
422
846
865
854
681
616
559
426
455
381
672
479
421
733
562
488
503
528
477
657
481
467
477
588
534
447
535
589
587
427
426
551
658
0
611
464
674
489
397
531
640
491
487
571
516
635
427
413
593
696
415
460
556
618
488
414
521
566
546
453
572
558
527
484
517
461
507
547
456
523
515
613
444
499
478
808
110
533
0
757
500
740
507
643
579
468
50
438
483
384
499
556
636
557
572
504
481
685
468
586
483
570
487
153
564
181
876
325
569
700
598
429
471
506
509
443
469
554
108
636
338
564
510
684
451
675
373
742
463
546
527
863
811
699
207
1023
467
348
446
414
701
204
312
612
382
535
315
423
537
761
491
519
567
583
518
78
538
551
541
382
441
754
545
605
597
529
543
363
403
497
642
470
420
523
494
517
519
449
469
713
499
473
494
698
614
428
548
545
512
452
497
537
578
475
406
630
0
709
87
676
693
733
439
515
456
554
444
458
594
670
555
541
497
537
532
546
573
825
560
602
429
527
441
566
500
495
543
658
344
592
503
509
551
429
610
519
634
314
519
603
694
460
437
576
580
377
449
523
578
690
302
506
720
508
494
513
489
567
481
489
538
611
599
472
473
430
600
379
482
489
667
623
336
612
568
629
427
474
541
562
460
519
497
598
483
457
515
608
602
458
549
462
527
509
504
450
524
632
483
465
547
621
408
451
471
697
520
472
532
515
497
521
450
441
672
495
480
453
646
555
425
515
577
442
632
495
494
636
354
553
463
601
469
517
583
593
511
416
485
507
600
433
579
405
753
478
438
618
606
519
476
499
501
544
464
518
480
564
488
647
504
567
499
528
339
528
612
449
514
522
540
504
479
541
560
501
455
366
563
474
421
787
932
776
713
456
409
479
478
695
697
726
831
519
471
399
0
427
469
575
682
698
550
537
543
31
498
556
650
316
584
503
562
0
691
488
446
164
647
459
360
350
919
564
557
631
811
397
115
499
208
817
164
596
497
497
467
440
633
611
600
476
543
397
644
569
561
480
509
528
513
502
675
1023
532
757
568
538
383
296
450
631
698
411
496
478
681
405
468
594
551
491
478
452
614
491
556
478
528
634
400
507
510
503
645
473
468
571
549
472
474
687
1023
609
497
743
652
592
432
443
670
457
484
559
648
505
536
484
261
829
614
682
999
175
550
512
444
590
643
521
554
457
655
491
559
519
547
484
494
429
503
637
461
480
507
697
885
534
713
504
577
482
501
545
602
446
448
493
500
580
457
497
611
0
437
611
544
542
562
574
327
1007
359
624
541
742
603
333
566
510
536
456
507
534
654
494
476
481
574
620
408
419
510
751
386
629
468
622
479
464
457
546
521
539
503
506
546
462
457
530
532
669
377
503
556
522
413
543
514
649
444
498
503
565
473
479
483
533
517
436
546
639
549
473
468
433
543
617
461
529
555
534
441
506
510
507
482
535
496
622
448
558
468
607
509
442
551
573
342
456
477
501
610
479
597
673
530
697
527
622
485
637
447
501
441
667
452
533
546
477
611
469
522
524
631
563
571
494
615
429
404
792
575
831
613
322
491
725
455
590
642
568
439
520
551
138
673
511
534
771
123
920
0
466
645
313
677
21
586
588
428
481
495
0
895
532
442
712
556
436
499
588
747
636
682
630
644
440
419
244
951
50
510
584
718
629
367
426
538
3
437
677
400
618
664
517
456
519
592
417
522
548
579
432
412
598
501
584
454
518
545
254
458
528
543
559
536
502
443
566
499
558
479
597
563
480
572
414
648
452
488
596
528
473
476
501
543
601
467
511
501
603
448
546
454
592
471
540
588
464
579
455
492
520
522
467
488
631
524
495
473
498
472
708
466
403
562
670
412
462
469
530
666
431
601
781
611
428
764
613
813
545
76
871
438
482
571
593
623
566
358
545
482
627
460
518
510
533
520
480
541
587
559
470
467
513
561
481
427
561
588
539
451
504
533
548
425
443
507
683
517
407
277
638
484
481
463
719
674
359
503
435
1023
510
0
788
408
672
493
518
612
669
468
452
450
514
503
489
489
545
483
412
539
539
469
455
444
726
807
699
617
725
609
699
462
478
727
674
440
390
422
26
423
1023
507
599
679
566
600
427
418
468
552
492
564
544
412
438
662
533
528
662
799
667
473
615
469
581
0
754
0
698
537
802
567
522
520
531
318
481
0
563
522
0
633
698
509
480
532
0
478
545
477
552
527
483
459
559
565
497
502
499
646
481
439
434
592
603
498
480
574
583
461
499
557
570
469
455
504
620
506
466
570
542
529
517
522
520
552
561
357
557
534
588
443
588
519
543
451
450
569
667
479
462
479
537
474
463
495
610
573
455
572
466
551
440
463
602
611
507
549
460
561
541
443
533
501
653
522
452
467
575
428
542
582
549
593
538
501
458
565
448
507
525
557
468
502
489
483
698
365
504
548
147
526
474
485
655
496
447
492
559
601
468
480
487
657
455
403
508
593
467
595
503
489
578
507
457
493
568
523
469
493
524
511
504
496
527
525
620
466
467
639
502
452
383
698
474
479
502
580
590
396
499
608
635
471
466
620
521
485
504
497
565
552
439
445
510
628
482
476
466
620
546
415
472
565
696
438
469
509
628
418
503
522
541
598
582
484
545
616
484
492
473
653
478
245
567
113
490
0
676
321
695
468
628
175
313
534
459
520
824
591
497
496
481
558
431
499
509
632
522
494
516
490
520
505
453
370
737
477
481
503
766
518
471
496
558
703
558
671
506
686
502
504
468
604
468
174
775
11
546
0
717
639
729
458
516
532
686
450
401
591
105
770
487
598
543
536
530
602
217
663
186
598
515
601
600
435
513
459
476
581
675
425
667
505
445
433
513
543
496
650
498
585
494
511
510
540
447
523
504
646
567
500
516
535
580
447
488
491
554
529
467
481
622
528
528
491
519
521
510
581
305
675
640
408
506
547
642
443
468
581
491
593
524
401
604
562
489
479
477
527
529
324
530
599
569
499
688
618
482
461
463
488
980
18
1000
713
621
449
321
437
746
488
793
580
516
574
508
432
528
646
421
573
498
578
558
399
554
578
475
540
509
577
604
481
449
593
656
484
501
543
7
573
20
453
703
607
581
696
496
577
454
193
490
19
526
403
687
587
756
629
549
453
0
507
420
484
654
564
379
616
489
531
719
509
26
525
1023
452
528
769
719
405
401
174
602
493
510
505
593
434
470
544
525
607
452
543
480
567
426
515
525
614
480
514
662
558
513
506
495
521
615
454
511
498
406
578
644
437
522
545
508
487
477
642
500
472
478
541
496
567
509
515
598
487
444
452
743
466
471
555
540
522
470
492
548
590
437
559
488
587
509
502
479
550
539
473
451
626
590
472
480
547
531
517
472
521
0
543
462
493
557
664
500
463
503
602
479
504
544
536
454
492
574
572
615
489
496
506
636
471
471
533
508
486
504
591
512
578
537
431
500
641
474
560
481
522
476
523
502
507
663
479
459
482
580
605
457
536
598
490
413
515
574
534
452
537
498
613
415
477
611
620
546
481
450
504
584
507
495
481
675
468
441
482
561
492
484
463
502
545
580
543
463
664
463
565
459
510
627
386
489
648
586
448
471
317
697
506
471
522
582
499
483
470
463
637
552
482
438
697
462
464
483
652
460
444
462
682
544
451
536
471
519
455
597
459
660
543
428
472
123
604
0
563
511
455
410
0
716
648
564
330
687
137
572
0
556
515
688
448
475
488
634
480
756
548
464
560
519
538
471
535
520
594
300
699
545
468
566
542
554
406
358
546
593
1023
505
385
665
454
555
632
535
567
496
440
470
627
547
448
479
537
611
441
479
477
622
490
456
514
530
541
455
483
571
531
517
493
536
551
454
473
466
621
530
501
507
552
552
460
456
526
654
464
499
406
622
591
438
563
557
494
516
495
500
603
496
483
441
555
520
502
482
504
636
391
559
549
649
497
454
473
556
532
446
516
525
575
478
490
499
563
473
477
537
612
535
430
561
552
627
437
528
513
536
536
