CH1
317
322
585
775
472
258
549
708
595
337
414
634
713
272
348
580
782
451
285
504
724
616
241
448
641
704
319
330
591
773
447
256
545
689
622
261
415
645
703
296
337
602
744
465
288
505
708
612
277
435
620
739
309
322
595
758
443
280
506
740
621
247
408
638
736
280
329
599
788
448
260
515
725
612
219
442
653
712
313
349
581
753
441
278
531
715
641
246
412
644
710
295
338
591
789
459
236
510
742
592
266
408
629
727
294
318
598
784
452
269
505
720
608
244
421
678
698
279
323
591
769
447
257
529
718
590
244
418
657
691
299
342
572
800
443
272
541
720
605
247
408
686
701
304
332
592
774
450
261
522
727
574
291
422
650
733
302
351
598
749
433
280
509
729
618
246
375
679
709
330
329
612
752
438
256
501
720
598
260
407
622
670
323
313
606
785
429
262
526
744
591
253
419
643
691
324
336
607
765
493
265
500
718
594
283
447
626
704
328
373
584
768
421
265
502
736
606
252
442
645
687
330
334
573
781
454
295
519
718
588
254
414
658
693
298
347
606
774
422
277
527
743
593
258
427
654
705
313
343
587
785
435
288
503
726
580
244
372
686
713
319
322
585
776
444
248
546
741
569
246
430
640
686
276
363
604
765
421
321
471
755
563
258
433
681
673
290
353
601
780
445
279
515
744
595
247
437
656
687
312
324
616
763
463
269
484
736
614
289
413
646
686
330
345
587
764
426
303
509
748
577
249
441
661
685
293
351
601
768
450
251
548
748
570
260
418
635
685
289
334
645
787
423
271
502
747
586
258
410
665
683
324
326
591
763
410
275
543
733
540
344
437
633
706
305
347
568
756
423
293
523
736
570
243
440
655
655
332
390
604
717
449
287
466
747
614
284
438
642
694
290
343
590
787
406
278
509
736
618
210
413
689
682
311
339
629
775
398
265
473
802
549
263
432
665
663
293
300
637
781
413
276
492
764
556
245
437
636
684
335
323
620
767
424
282
526
742
557
265
446
658
682
286
367
635
774
384
290
526
765
537
276
451
672
669
272
356
646
765
402
282
515
747
565
257
434
656
686
303
335
604
781
421
261
521
745
557
282
445
599
731
298
318
611
771
413
265
516
750
561
286
431
651
682
300
346
562
771
483
269
521
789
539
272
414
642
688
317
348
597
743
421
324
501
762
551
252
417
637
684
298
376
564
802
396
309
505
740
572
252
419
670
677
276
359
612
747
432
290
532
755
539
268
423
662
655
317
357
597
782
396
279
585
741
531
260
428
628
703
274
348
611
762
401
292
504
758
569
274
401
690
673
293
341
612
735
385
281
530
760
554
285
420
645
675
322
359
596
766
402
293
521
752
551
257
420
657
685
298
382
603
764
401
262
560
751
553
251
439
649
650
358
332
625
765
396
285
531
732
569
257
431
642
684
311
357
601
765
408
291
519
753
565
249
420
661
700
302
373
553
794
395
319
517
759
555
245
433
637
679
316
360
599
756
387
290
531
753
541
261
431
659
691
301
354
575
760
401
298
529
755
560
246
421
671
670
333
338
598
771
363
262
583
784
541
273
437
648
662
303
355
626
763
373
301
512
764
548
251
448
640
666
306
354
585
787
392
298
509
761
581
259
427
656
670
317
359
604
753
402
308
528
755
559
246
445
617
673
320
357
607
755
368
302
521
777
548
264
427
657
672
304
340
633
774
358
310
518
787
578
252
442
654
672
289
352
598
750
411
288
526
765
564
259
436
650
682
250
405
643
777
346
287
551
742
511
261
424
669
679
293
342
617
768
408
277
547
760
562
236
434
688
657
306
367
625
760
388
286
500
789
552
261
433
668
677
295
348
589
772
383
291
535
741
530
302
443
660
659
337
378
585
806
376
298
522
762
538
257
432
658
673
302
355
603
765
402
294
533
758
529
270
460
660
686
284
366
594
778
387
302
527
781
543
252
432
660
673
297
356
627
761
370
291
547
774
523
255
456
664
678
279
356
615
773
366
289
524
768
537
273
446
662
652
304
356
562
790
411
264
532
732
551
230
454
678
684
298
336
603
777
390
281
530
760
540
233
426
685
684
289
367
616
766
378
282
520
778
538
243
439
678
679
276
341
619
781
387
278
513
802
514
248
450
663
679
293
364
591
773
380
289
528
786
542
272
427
673
666
298
375
608
770
383
298
524
776
546
235
449
657
681
300
347
630
771
335
304
523
778
547
269
430
666
645
291
372
602
764
388
303
530
771
553
249
421
684
674
296
366
610
766
346
299
527
764
526
274
426
660
674
294
378
614
774
378
278
521
759
538
252
453
664
677
288
352
609
755
398
279
537
779
532
255
438
675
668
291
358
627
772
343
306
552
767
529
249
427
661
663
316
358
622
780
374
275
530
760
557
262
442
650
685
300
354
593
765
370
302
520
775
531
264
427
677
672
296
367
645
762
372
289
537
765
543
224
459
648
665
292
373
607
747
374
284
562
763
546
266
452
659
660
293
368
624
764
352
293
539
768
548
223
427
681
668
325
354
590
788
381
281
517
791
557
273
407
688
633
307
397
597
740
398
322
514
759
555
254
448
639
680
289
367
645
743
418
268
534
773
535
243
434
632
688
294
418
618
763
378
285
513
760
552
284
428
658
664
296
352
613
779
390
279
544
762
528
250
416
677
634
256
414
607
812
381
281
521
785
531
262
446
673
683
293
329
628
771
383
318
504
834
583
217
461
675
649
298
372
612
753
380
284
532
779
488
260
434
641
641
325
404
585
766
294
355
513
770
533
255
446
685
658
275
367
626
780
358
288
541
783
544
234
448
670
691
220
350
624
821
350
284
551
797
507
243
451
684
668
269
362
641
771
342
270
593
776
544
272
421
740
654
249
373
663
779
361
276
511
833
499
251
476
682
631
261
374
608
741
402
253
476
828
542
186
518
668
665
251
388
624
771
350
273
538
794
514
244
464
634
683
292
348
620
774
364
285
518
792
541
240
445
687
655
274
351
613
768
342
316
513
803
511
265
429
657
653
273
377
616
776
360
296
536
776
524
229
501
671
662
293
365
616
753
359
274
534
796
522
254
453
676
669
262
393
631
783
342
280
535
764
557
254
464
669
666
267
385
636
763
363
271
588
760
530
216
480
684
637
289
377
654
767
344
275
545
786
504
229
497
685
656
284
363
640
744
354
362
547
755
569
251
424
683
667
267
360
633
776
349
289
554
765
509
247
469
684
701
227
385
609
738
389
300
546
772
503
248
487
680
671
278
390
633
759
348
261
563
794
503
239
465
684
685
251
331
675
779
356
286
547
804
495
247
455
684
676
270
347
612
766
346
315
535
795
522
248
480
682
649
274
390
618
772
348
288
549
776
559
250
450
685
666
264
361
670
767
357
300
547
762
508
241
444
657
666
280
408
640
770
374
266
569
747
541
252
433
686
669
262
375
636
763
361
285
561
773
528
248
460
656
685
261
363
668
739
364
274
538
792
510
246
471
677
667
289
348
643
737
370
283
566
781
537
240
432
666
673
284
347
620
773
340
282
555
783
518
239
446
683
677
261
383
608
740
405
265
585
786
539
203
445
681
661
273
381
651
764
337
287
523
773
562
227
443
675
681
268
360
617
785
346
282
532
775
516
265
442
689
660
269
382
644
763
371
267
526
793
506
251
470
677
679
267
419
606
771
372
285
536
757
538
252
457
682
649
290
367
625
776
358
301
539
786
522
231
446
673
663
274
357
632
766
363
286
526
773
545
268
426
684
652
302
383
598
756
368
287
557
737
535
237
435
669
675
290
357
652
770
363
265
567
772
512
240
463
702
645
291
372
624
765
354
297
522
808
530
253
431
687
665
279
396
622
759
368
305
521
819
535
251
443
680
667
269
374
637
771
341
306
513
805
538
245
462
685
665
292
360
630
770
340
286
549
796
490
248
471
685
664
260
358
641
771
357
298
518
782
519
267
422
677
684
273
354
650
755
347
305
514
809
520
259
443
678
650
279
350
629
764
359
288
544
769
531
270
428
627
720
274
368
640
753
340
300
550
770
524
265
431
664
638
313
378
628
777
370
303
517
767
552
237
441
706
653
277
361
614
764
366
280
547
775
540
223
448
675
666
284
358
613
778
356
281
509
790
545
238
448
680
672
276
363
629
788
345
313
504
790
525
261
437
673
676
273
365
631
776
375
278
522
777
508
252
464
664
674
269
355
655
756
358
278
543
802
529
232
439
685
666
267
375
643
745
389
283
525
782
502
262
432
687
660
273
379
627
742
364
289
529
776
553
241
435
681
654
285
363
622
780
360
224
607
778
533
246
438
679
663
269
368
625
788
335
280
547
744
563
215
458
686
653
305
351
589
793
360
274
564
760
554
245
429
650
716
309
362
624
781
385
240
537
777
567
263
377
741
674
216
430
595
764
330
326
503
794
496
260
527
619
680
240
445
617
667
367
297
518
740
557
291
478
672
632
264
302
671
761
422
290
504
790
565
212
441
685
649
271
352
576
821
376
286
505
766
510
256
461
639
736
254
357
596
786
394
234
532
779
529
216
445
672
664
300
291
629
706
357
354
574
798
500
282
462
656
706
279
326
728
788
350
296
531
767
508
225
441
662
682
288
353
614
772
400
266
529
813
537
271
458
649
671
306
335
595
764
431
241
558
744
529
250
411
672
655
260
396
610
764
389
276
504
780
532
305
433
647
684
345
347
590
789
422
271
498
752
579
235
444
648
683
319
300
627
761
418
280
522
757
534
259
436
648
637
327
329
614
763
397
295
525
735
549
268
426
660
683
315
321
614
760
357
265
530
757
564
256
394
676
657
292
369
619
765
400
253
518
765
568
262
439
639
651
276
376
618
770
425
335
521
765
501
280
414
659
662
305
357
608
780
361
296
540
747
510
277
489
655
677
273
378
605
751
383
308
548
760
539
239
462
640
679
335
351
639
790
370
268
523
772
528
254
463
644
687
305
353
628
776
337
296
552
739
589
261
438
679
655
267
367
644
757
366
320
509
796
521
243
419
672
644
276
391
611
794
387
242
556
769
534
261
453
682
684
269
367
588
760
391
283
526
833
540
258
415
708
655
278
361
626
773
367
303
535
778
541
264
421
665
692
289
358
606
820
351
296
511
749
566
260
402
676
660
293
343
621
747
410
331
529
751
535
268
423
649
683
329
323
593
810
396
287
564
773
510
261
413
665
658
291
369
584
761
428
274
529
758
506
283
419
673
663
313
356
587
766
372
300
514
735
574
271
419
648
665
314
352
603
766
384
297
518
755
515
308
452
619
682
305
352
601
770
416
264
521
743
560
261
418
641
684
298
363
611
759
426
302
488
741
561
288
428
644
687
291
365
627
743
416
263
589
761
505
283
466
637
672
294
362
636
778
384
309
515
752
553
252
403
686
668
309
366
605
741
319
295
567
765
558
265
439
624
665
317
361
585
796
383
278
443
743
655
220
429
642
679
329
341
593
773
383
293
516
741
546
286
431
663
667
281
405
588
746
409
275
540
746
555
144
537
662
664
309
354
619
752
369
301
518
729
586
251
458
650
681
294
268
686
738
422
302
577
736
494
270
476
612
685
312
349
542
777
380
556
761
484
253
500
688
661
261
413
633
672
352
406
565
776
488
279
458
719
642
266
419
652
694
316
342
584
751
511
302
453
720
665
264
406
644
709
327
333
578
769
487
284
488
685
675
272
383
685
725
328
328
556
768
479
280
467
714
660
255
413
631
719
364
310
557
774
456
315
454
732
645
270
438
640
730
305
301
587
767
491
279
478
685
666
264
412
623
734
340
312
561
776
484
299
506
671
630
275
407
635
767
330
362
572
731
506
301
479
671
650
274
386
626
704
338
330
588
752
492
247
474
686
706
255
404
637
712
376
282
559
788
476
306
477
687
660
256
397
619
763
329
333
547
753
554
249
489
685
668
256
390
627
729
342
326
556
790
481
279
484
688
665
255
390
634
739
356
304
571
758
493
285
476
685
665
255
414
645
731
342
289
558
779
490
318
458
706
653
298
388
627
735
352
305
549
753
506
276
480
673
666
287
370
587
789
347
307
526
740
554
249
481
684
679
270
387
610
727
340
311
539
815
501
283
463
690
655
258
403
615
730
366
312
549
750
496
267
559
671
652
267
411
611
734
300
316
568
756
494
292
445
686
684
283
387
619
724
337
273
559
758
524
272
534
673
617
299
392
605
750
313
331
538
744
526
273
476
649
727
251
386
611
780
338
293
544
769
502
273
484
677
685
247
398
645
733
312
310
559
781
505
275
479
650
658
264
379
613
729
373
273
538
818
516
275
477
682
626
298
375
610
778
342
316
558
756
516
235
502
715
651
267
338
642
712
366
297
555
771
515
255
456
687
642
320
396
632
748
337
282
548
743
500
313
445
689
661
238
399
616
746
372
287
542
733
533
257
489
684
671
239
385
611
743
370
285
530
810
498
270
482
660
668
257
407
618
758
347
280
555
730
542
268
469
687
625
316
377
624
728
374
298
539
759
542
257
476
686
651
282
394
609
757
344
301
586
741
523
263
438
685
673
237
405
625
732
371
325
538
759
518
284
458
675
662
264
383
607
743
374
320
537
773
497
260
479
721
635
269
393
611
752
337
309
549
764
506
264
450
688
685
239
393
623
748
361
299
551
786
515
251
466
679
633
271
399
620
752
357
306
513
781
529
272
467
667
664
284
373
626
762
360
293
527
767
554
251
457
682
634
265
367
646
747
367
290
538
769
508
296
454
674
657
270
388
567
701
404
313
541
771
526
244
473
684
667
266
374
645
730
360
295
547
779
521
262
462
674
675
258
352
618
790
341
287
556
759
513
266
442
677
659
302
362
609
747
378
265
557
748
533
265
474
675
663
257
386
604
782
362
325
541
754
526
271
462
650
654
275
379
597
756
404
287
537
786
509
256
455
684
667
284
387
612
752
374
291
525
771
544
258
452
664
676
261
488
608
760
387
298
519
742
525
261
452
668
654
278
355
646
762
401
279
543
758
525
293
453
670
687
249
377
608
747
404
293
533
782
520
250
462
669
664
262
370
622
754
349
297
580
711
574
246
474
676
669
271
370
630
758
384
283
521
803
534
260
444
650
671
283
323
589
761
406
266
585
734
516
267
445
664
666
285
383
617
749
377
308
546
778
515
269
433
682
660
253
353
679
741
377
301
515
795
525
261
454
663
675
284
354
595
783
389
298
524
778
543
244
421
666
675
328
356
576
769
414
277
538
761
533
289
412
673
656
301
364
644
738
390
328
532
782
546
247
428
645
667
297
380
593
773
314
320
525
771
585
272
410
639
689
297
335
604
767
391
285
508
758
644
267
433
648
671
295
347
578
774
432
309
503
765
549
247
402
646
701
308
367
594
743
429
282
515
743
573
266
412
651
680
299
384
597
774
371
268
499
797
564
256
446
653
655
298
364
600
764
409
311
505
733
561
279
423
640
680
298
358
628
750
390
313
509
745
592
242
411
673
669
328
353
604
774
376
285
499
735
568
280
436
633
703
330
336
590
780
409
273
504
759
564
237
395
662
716
310
356
598
758
407
286
508
774
563
240
403
649
685
303
357
597
759
395
291
491
742
551
271
428
642
678
374
338
572
786
441
284
475
754
591
290
418
628
691
306
374
581
783
477
290
491
686
555
283
441
643
660
344
371
534
802
449
292
477
738
570
266
433
637
703
337
335
582
771
449
300
538
740
585
281
424
642
677
298
343
570
777
432
291
548
731
598
269
416
673
681
293
358
574
784
413
309
496
738
562
265
413
666
709
304
313
653
762
425
295
494
685
626
295
381
650
738
314
347
573
801
434
284
503
728
584
296
411
659
726
374
306
600
774
425
274
510
728
569
281
414
626
722
307
343
592
768
428
298
538
729
583
254
420
618
675
287
341
602
783
485
281
501
740
612
249
403
608
733
335
314
612
784
454
262
489
708
586
298
429
640
706
325
328
568
792
413
248
560
711
612
222
445
654
682
314
363
546
757
474
297
496
686
687
264
401
639
683
371
296
626
759
447
243
496
684
546
308
374
664
769
312
345
511
844
466
256
501
710
607
279
362
666
716
314
360
577
769
464
273
495
685
587
284
431
608
725
308
335
558
786
453
266
477
721
637
253
421
625
730
318
297
591
780
444
184
591
686
615
272
432
658
682
302
333
589
788
477
265
476
685
660
253
409
626
727
338
339
556
755
488
281
502
687
645
271
399
659
686
313
355
582
772
490
266
493
686
655
263
405
672
681
370
288
600
772
481
269
456
742
645
243
428
640
707
321
326
596
784
487
252
488
706
653
240
415
657
718
300
323
582
788
469
270
483
723
627
299
362
643
725
318
338
568
743
486
281
480
687
671
279
381
622
739
327
314
590
736
489
292
476
674
687
244
353
681
728
341
291
579
752
465
273
488
685
652
272
386
648
718
359
299
611
787
476
279
465
727
652
254
314
686
741
342
316
556
769
507
259
471
686
683
274
343
656
727
346
318
559
770
491
268
473
708
685
185
447
657
686
366
287
579
773
477
281
476
683
680
255
402
632
747
330
307
560
783
473
329
487
651
712
244
382
620
758
329
297
584
765
500
276
474
685
671
258
366
621
777
337
308
566
762
468
280
492
726
672
272
406
613
732
343
284
597
761
505
279
465
690
680
275
404
576
748
305
302
575
765
471
334
470
659
640
275
408
616
751
336
320
504
762
503
269
477
678
657
285
375
607
768
358
287
568
738
503
275
389
724
690
261
388
617
742
346
271
566
771
521
263
459
679
679
260
383
617
776
332
293
547
803
514
263
460
686
667
267
364
611
759
369
315
531
759
518
269
451
650
662
349
377
622
750
373
292
525
757
534
277
459
686
659
272
373
620
777
367
288
550
764
546
279
441
680
661
252
381
623
736
377
304
529
773
534
285
433
687
666
274
381
594
761
355
285
537
775
533
288
456
655
662
249
432
633
740
374
309
497
770
520
277
448
631
702
292
364
633
756
387
258
513
825
546
270
444
671
661
284
360
641
762
391
305
531
760
532
303
463
657
670
276
387
612
782
370
299
529
786
518
271
453
668
655
274
412
599
752
404
292
518
764
543
270
449
642
645
320
348
611
749
406
278
515
766
539
276
442
656
678
292
366
607
773
392
291
527
768
498
307
468
684
631
334
395
579
743
385
294
536
772
533
237
470
651
640
311
369
597
762
385
307
501
778
610
258
409
663
672
280
372
587
764
429
280
518
756
527
321
418
645
685
318
371
613
736
404
263
543
757
583
245
427
669
660
313
329
638
765
410
277
504
761
548
265
425
650
672
309
353
594
767
403
315
513
738
596
274
408
644
662
330
375
600
773
392
296
509
754
571
250
458
635
681
306
356
558
814
388
261
532
772
550
301
431
618
686
317
337
590
697
425
311
491
767
550
306
416
627
674
331
373
576
749
429
289
525
735
591
236
432
618
696
307
368
600
770
413
314
493
778
594
266
422
650
681
296
334
611
772
439
283
496
748
592
282
408
680
710
280
347
625
797
415
288
519
686
600
282
411
646
689
317
343
562
767
449
297
500
724
565
256
437
647
742
325
318
568
760
406
321
492
739
604
259
403
663
675
322
336
631
771
427
306
507
757
583
256
451
657
681
266
347
638
752
446
283
517
708
608
233
417
649
701
330
313
602
768
458
286
495
730
622
248
437
658
710
319
344
564
742
490
262
497
732
578
273
401
653
689
332
322
590
778
437
277
508
742
581
282
406
637
729
298
348
627
767
459
255
525
676
612
276
425
643
698
322
336
581
776
451
332
458
681
655
286
398
602
743
347
308
609
764
475
261
442
726
648
244
432
687
713
318
377
588
768
481
236
495
689
609
289
379
670
735
284
339
599
772
431
303
505
716
608
326
419
654
694
299
315
541
788
456
253
495
697
651
267
402
672
725
322
344
585
783
455
255
498
776
619
258
466
648
717
289
312
567
776
488
245
492
693
647
236
397
627
735
305
357
577
780
490
244
489
676
675
262
406
645
710
306
298
590
753
547
256
483
686
643
242
415
641
729
309
352
557
796
466
270
474
722
666
211
390
671
735
328
264
584
772
459
269
553
677
634
228
475
631
693
347
306
560
769
492
251
485
710
683
234
357
722
713
341
301
566
751
462
291
483
672
684
251
408
661
724
259
397
539
761
540
258
513
684
653
224
443
633
740
333
312
528
745
586
261
475
686
680
224
400
646
750
324
338
559
754
491
285
456
686
705
223
365
615
686
366
374
503
791
476
313
425
673
672
261
406
640
723
344
295
552
773
506
271
477
678
677
262
391
591
747
328
308
530
839
540
263
477
685
668
243
392
600
736
383
296
559
772
505
277
454
674
618
268
417
620
759
335
278
590
722
517
303
473
686
668
249
359
631
753
364
322
538
777
499
281
464
673
675
267
364
614
802
355
275
522
846
493
266
447
668
670
264
374
633
757
373
285
554
749
530
255
481
655
685
287
374
581
759
331
324
532
766
531
288
463
660
675
252
408
577
743
421
247
620
785
496
241
472
631
613
328
423
574
771
340
335
530
756
535
271
451
657
640
285
377
621
752
357
305
535
756
539
268
421
657
756
265
371
612
746
365
301
533
777
552
258
469
649
684
264
376
638
782
339
270
565
807
509
216
518
685
645
276
381
622
744
340
287
555
773
504
240
494
675
661
275
417
594
787
343
316
531
777
507
230
451
684
676
254
380
620
782
311
313
559
796
498
230
490
718
676
180
430
623
773
372
263
568
817
471
237
486
722
662
240
386
653
771
307
295
554
800
473
201
508
721
678
211
375
688
755
293
287
578
807
470
216
465
731
654
235
392
651
790
249
359
624
798
485
173
504
720
646
232
379
629
809
311
267
574
854
480
204
469
721
676
254
415
624
772
305
256
587
808
488
262
497
698
659
260
347
653
780
298
318
531
875
491
217
461
710
674
245
369
634
754
346
259
612
830
513
236
481
687
642
267
348
628
790
303
240
633
800
505
200
504
681
630
251
380
652
750
343
276
564
808
502
249
443
679
681
250
354
628
851
343
248
610
771
540
233
463
685
662
278
334
654
767
375
281
513
807
539
227
425
685
695
217
382
626
792
379
251
564
771
542
239
429
687
627
319
308
612
809
398
287
514
770
578
241
422
691
654
300
342
625
767
361
261
532
738
572
265
439
669
679
272
349
645
745
380
314
539
754
572
217
462
638
735
309
347
615
776
359
259
521
774
553
272
390
684
701
281
349
623
760
378
278
516
807
579
241
381
689
656
336
357
611
786
365
270
549
792
560
247
417
679
668
302
346
598
782
399
268
531
784
564
236
422
676
675
281
363
601
818
366
270
505
781
558
254
405
686
707
275
312
617
781
407
295
513
766
583
238
424
677
674
308
340
610
782
424
263
540
773
552
240
419
661
675
369
320
626
801
399
230
552
722
642
216
431
672
647
244
304
659
799
396
291
527
739
575
220
446
638
677
323
328
598
794
418
245
504
741
605
242
428
682
686
286
365
605
777
480
261
510
724
617
213
419
687
694
285
333
614
776
412
316
506
735
586
257
421
653
712
247
324
623
794
411
263
501
726
612
239
435
673
717
266
341
581
795
456
222
537
728
609
229
423
666
731
289
329
586
733
535
312
495
729
649
222
387
665
694
311
305
600
804
434
260
531
751
616
244
392
676
721
282
330
589
798
453
247
471
738
649
224
454
683
751
254
333
649
744
538
248
497
752
618
222
410
661
734
277
321
596
799
460
266
495
727
634
184
454
622
686
334
317
620
824
436
252
497
720
637
218
452
653
701
298
368
601
764
463
287
489
684
675
214
468
676
691
308
300
612
871
419
301
508
727
621
225
400
652
736
282
311
625
779
400
364
476
765
633
224
410
682
766
295
321
633
775
463
225
500
739
646
232
376
667
772
242
306
615
739
513
210
541
733
666
238
411
681
726
275
302
586
766
531
240
503
732
615
258
368
662
754
305
325
558
805
475
270
473
726
654
224
447
632
722
320
275
593
778
455
237
493
719
650
218
420
652
754
300
297
559
788
472
249
480
685
633
288
374
662
756
270
310
583
775
508
240
478
683
683
220
404
660
739
299
320
564
831
443
215
563
686
666
263
349
664
737
254
375
574
769
507
248
488
714
658
241
400
628
721
384
294
573
763
476
252
485
649
725
219
407
606
755
362
273
584
740
492
258
505
695
654
231
401
624
746
327
304
572
782
486
255
501
710
621
192
459
635
685
333
341
571
769
476
240
513
685
674
255
395
626
743
338
299
577
777
474
247
488
679
685
320
367
643
764
324
277
554
765
532
247
457
694
673
236
376
590
800
320
283
581
796
500
174
579
683
607
252
401
644
713
338
319
543
790
493
250
416
703
650
224
376
641
764
319
308
565
782
489
254
470
724
656
228
364
638
702
411
276
596
785
502
263
457
680
637
262
452
656
739
336
301
545
774
492
241
459
680
700
235
339
657
798
331
285
548
789
489
258
496
684
675
271
370
626
768
364
293
549
782
506
232
448
779
650
238
388
641
717
421
319
505
791
529
226
444
683
648
277
363
640
755
338
287
547
787
540
206
489
644
675
281
366
626
784
339
303
542
783
507
264
451
675
653
262
382
635
764
355
284
539
789
550
250
445
678
667
289
349
644
758
400
248
504
845
519
252
444
682
650
241
420
639
766
372
298
531
762
483
310
449
663
631
314
349
632
838
402
274
522
806
475
269
483
662
672
270
359
658
737
367
290
526
784
549
256
450
668
634
308
350
627
788
369
263
507
745
548
357
441
651
671
280
333
661
815
376
280
508
750
554
253
440
661
671
313
305
593
826
438
255
524
806
515
238
454
653
685
249
414
680
763
394
286
543
754
514
263
450
664
678
297
331
597
743
349
406
499
735
588
217
440
650
669
326
377
628
775
370
272
519
761
527
289
425
634
637
358
309
551
854
420
264
515
779
550
222
400
683
646
326
355
616
761
390
307
544
775
549
230
405
671
686
268
368
610
754
336
328
573
757
520
298
416
630
671
376
331
623
775
385
269
529
789
524
255
462
649
673
279
353
619
782
386
277
508
731
476
271
432
670
682
267
376
565
761
401
295
539
751
567
250
440
545
786
342
363
607
799
395
262
484
749
578
242
444
675
601
359
390
597
770
462
265
516
754
551
250
425
663
661
262
397
618
767
392
285
557
736
522
305
413
685
685
279
326
601
788
397
305
506
767
516
177
500
604
735
304
318
645
780
351
278
526
761
561
239
441
670
686
295
336
617
767
447
238
570
745
647
200
411
627
719
267
316
590
778
403
266
549
742
495
315
389
682
697
240
355
621
752
391
318
456
769
571
266
412
671
694
287
308
648
788
465
261
469
843
542
231
425
684
670
297
348
609
805
378
258
605
681
556
312
433
622
749
255
341
620
779
412
253
464
779
560
252
445
670
673
294
323
649
739
466
300
482
681
598
294
397
667
656
332
348
556
778
429
261
474
766
586
331
470
720
666
293
271
745
771
393
329
581
619
665
146
477
614
698
382
271
584
750
445
286
491
725
594
242
422
654
685
299
327
610
779
416
242
542
617
762
238
463
587
753
299
356
547
816
481
313
488
708
570
262
428
655
698
296
265
584
854
415
301
503
783
603
209
438
667
691
286
314
622
810
428
273
516
741
585
217
479
681
677
358
327
577
770
392
396
461
758
591
241
428
650
760
288
308
619
790
439
246
539
800
551
263
375
667
701
331
314
570
820
527
278
541
728
637
198
371
687
715
271
311
676
738
459
253
523
716
585
225
410
711
785
301
334
617
764
474
243
491
720
630
163
445
709
684
320
310
563
773
385
275
510
746
590
250
454
609
746
307
326
562
778
383
294
512
753
629
267
367
649
749
303
304
592
794
467
245
520
753
678
228
349
685
751
298
291
626
799
422
254
510
722
638
231
346
705
732
289
328
562
814
447
247
458
741
677
268
416
622
727
356
288
604
773
467
262
518
682
701
234
382
666
681
403
323
589
782
458
261
504
745
614
259
445
645
706
303
295
628
746
559
237
513
762
668
224
347
727
749
264
342
579
787
443
242
455
760
644
231
417
657
722
305
282
590
784
519
247
520
688
634
247
404
610
783
292
321
569
749
483
255
518
720
644
234
403
662
718
354
306
593
735
452
284
490
740
660
229
386
655
815
286
329
597
776
435
243
542
747
639
253
470
583
782
296
317
574
775
460
268
465
716
717
244
407
634
723
390
304
537
775
488
251
471
681
718
220
315
687
751
314
302
596
759
477
252
520
689
685
225
347
673
742
341
322
591
779
506
260
486
726
666
213
423
657
734
310
335
561
730
544
213
502
710
651
244
389
642
731
339
307
568
775
376
365
538
684
659
240
422
600
716
328
324
563
768
506
295
463
715
661
247
384
603
783
317
278
570
774
462
267
462
754
677
231
431
619
737
331
297
571
766
509
259
448
692
647
267
356
628
705
478
278
576
801
502
235
479
680
640
218
422
637
727
265
331
558
746
537
261
487
706
582
210
436
627
732
361
302
519
774
465
234
493
709
659
254
386
616
762
329
290
564
764
483
244
451
743
677
251
363
683
711
348
293
562
774
471
312
475
682
659
255
392
638
727
303
354
563
761
482
232
475
686
684
205
442
595
735
360
290
548
789
486
258
480
675
680
278
383
631
731
347
358
556
810
489
238
487
669
659
234
387
662
754
333
292
560
773
523
244
473
679
743
224
414
629
755
321
293
548
728
532
272
472
671
649
257
381
613
770
343
290
559
789
498
256
469
681
638
243
409
652
720
383
273
568
748
556
257
455
685
664
241
363
653
755
321
301
536
782
509
262
465
685
600
366
345
654
763
329
287
526
777
506
258
468
725
652
272
379
626
767
350
287
542
780
500
260
451
676
673
278
377
633
782
339
300
542
789
535
254
430
688
656
271
382
647
719
370
286
559
785
512
224
474
679
634
245
421
656
682
405
277
540
742
513
276
412
669
636
291
371
598
792
347
280
504
824
496
348
422
698
669
318
365
614
770
377
338
541
758
468
296
441
629
675
286
377
591
775
322
311
567
746
516
267
425
718
673
316
335
619
775
365
288
501
776
524
241
455
661
690
293
358
630
785
326
253
524
769
581
275
409
738
585
317
374
620
813
374
316
507
773
528
272
478
675
636
343
276
655
739
377
295
575
751
499
292
436
673
664
284
370
627
774
383
281
529
771
542
256
452
651
644
284
321
660
781
292
346
533
772
515
312
389
685
662
262
346
611
757
429
282
507
758
569
273
439
647
661
281
368
610
778
416
228
544
768
536
257
522
656
668
279
375
642
746
343
328
554
739
572
245
419
653
680
314
364
598
736
441
269
522
756
559
249
413
678
758
250
400
646
755
410
261
531
768
578
240
419
656
641
359
282
671
760
406
272
546
750
549
250
438
671
651
355
334
622
784
381
266
531
775
558
242
472
665
667
289
321
683
793
380
268
513
779
541
240
453
670
674
289
329
624
758
395
333
500
727
609
227
417
681
686
308
327
600
774
427
277
517
754
571
256
420
660
754
279
341
646
772
362
269
525
737
572
251
434
673
671
317
340
621
759
415
254
557
759
579
248
447
660
663
308
350
599
800
423
255
521
762
585
238
429
639
696
321
329
606
774
435
253
531
752
566
220
456
658
674
346
327
616
779
418
264
501
760
574
241
430
650
685
313
327
589
771
451
265
478
791
600
270
451
631
687
306
308
625
766
468
280
542
722
589
256
433
647
686
328
326
602
785
425
260
483
753
644
251
426
655
721
273
335
592
811
436
257
535
737
597
245
443
617
686
337
310
600
745
482
304
501
740
557
263
392
604
687
372
262
669
861
390
266
537
721
639
243
415
675
714
287
318
628
758
451
252
507
739
610
237
425
678
688
314
279
607
826
414
236
566
676
649
246
406
666
722
284
331
575
775
433
317
520
686
624
278
431
647
719
310
339
586
769
441
285
541
685
667
252
410
657
684
335
326
586
780
447
211
568
684
605
251
448
634
735
309
278
599
767
462
245
543
704
650
189
489
685
690
343
293
638
856
436
262
537
729
629
214
388
671
745
299
310
598
773
469
251
479
707
684
210
370
788
711
328
314
547
778
477
217
614
728
659
259
388
626
743
353
309
607
796
420
270
484
731
644
280
393
680
709
292
351
557
775
470
291
454
716
665
229
398
649
721
352
338
569
784
479
261
464
731
677
254
377
638
693
396
298
540
808
489
238
485
680
656
245
422
649
722
310
317
578
769
436
318
478
684
678
278
357
657
752
314
293
575
753
461
272
496
752
609
268
387
686
693
321
335
559
732
481
334
432
725
636
269
341
615
782
309
321
572
745
503
255
481
706
667
253
392
635
743
354
308
543
823
472
255
490
686
670
238
373
659
748
312
294
563
805
487
272
471
725
627
231
403
634
755
366
298
548
771
494
257
464
714
617
257
458
634
740
342
289
548
754
480
295
482
690
675
266
386
607
743
347
291
515
802
493
266
460
714
631
264
389
659
757
306
329
547
768
487
244
519
706
597
234
396
636
750
320
328
506
823
481
238
451
768
682
240
376
644
755
331
293
566
782
506
252
468
684
653
304
335
656
686
425
286
553
762
491
280
476
669
674
252
393
632
756
344
246
618
781
488
249
483
672
666
253
350
623
762
377
275
556
792
482
296
452
686
667
270
377
583
789
359
273
567
782
533
262
456
663
708
261
371
633
758
335
291
535
798
520
255
464
685
611
311
374
629
803
337
266
493
844
546
212
495
670
646
276
360
614
793
371
259
572
776
520
244
437
641
655
295
331
588
822
347
270
549
756
574
210
446
665
669
292
373
653
766
389
282
551
769
535
223
484
645
665
274
391
614
728
367
301
523
779
504
254
434
680
676
291
350
624
787
354
255
534
823
532
282
411
687
682
279
367
608
772
366
284
545
763
544
233
447
660
683
277
361
633
701
379
295
524
773
531
250
471
670
632
333
389
607
743
356
302
532
781
542
236
425
677
658
247
448
582
784
344
342
536
751
519
246
396
720
678
290
357
605
758
415
259
518
805
520
264
433
646
682
293
391
612
755
349
305
524
790
537
256
435
663
671
298
326
635
769
403
283
526
776
559
222
454
640
687
289
409
617
762
350
374
511
766
532
298
417
665
670
300
348
660
782
372
278
503
831
558
251
411
684
677
264
363
613
776
383
286
571
760
549
257
415
677
621
359
388
593
790
375
280
548
757
546
251
442
657
668
274
382
605
787
401
261
507
807
510
308
425
660
686
265
363
602
771
404
272
549
756
555
254
403
713
685
230
374
626
773
400
282
523
746
594
231
454
676
674
278
313
583
805
428
283
511
772
561
232
423
666
684
307
350
628
767
382
347
474
764
537
277
416
660
680
257
339
626
763
428
269
534
753
544
234
450
673
679
264
335
620
795
398
298
532
716
535
246
437
674
695
308
365
566
814
417
283
527
763
492
290
404
680
673
318
358
604
769
389
279
512
738
538
241
430
670
686
269
341
586
777
441
260
562
735
558
199
533
648
670
318
314
623
783
398
271
546
722
620
239
416
628
741
336
335
572
813
420
287
500
733
612
239
425
650
669
304
345
609
789
408
328
496
737
593
252
420
678
698
268
321
623
776
437
268
511
723
590
221
416
686
693
310
316
612
777
429
265
510
725
582
261
434
670
711
288
327
594
782
455
279
480
720
624
205
462
684
692
298
304
610
781
433
276
521
732
591
227
440
662
659
330
315
617
815
442
275
446
765
544
297
406
656
756
261
381
599
789
444
266
496
747
602
255
429
672
725
232
375
560
761
449
269
548
720
615
252
433
668
683
336
335
599
794
462
264
497
744
608
244
442
614
723
331
302
563
826
435
287
512
724
586
215
464
681
703
328
323
593
760
435
322
493
708
643
220
423
631
717
392
317
579
759
486
236
470
737
640
267
406
626
733
299
294
587
801
475
260
475
748
611
275
366
686
735
291
336
565
786
489
268
481
721
661
225
394
731
720
326
296
587
800
434
306
516
683
650
244
422
675
736
294
322
591
769
458
264
514
703
645
243
426
649
718
367
303
552
830
525
224
507
664
721
232
392
676
733
289
285
567
778
506
271
501
706
636
255
415
631
682
358
299
575
779
518
276
475
709
684
225
419
620
767
332
296
591
789
486
232
489
686
680
257
391
673
731
293
321
572
773
486
239
525
655
739
222
416
659
700
350
304
559
774
497
262
502
720
629
242
395
652
759
333
312
551
775
474
223
513
685
662
205
440
638
738
320
283
569
820
484
239
480
731
646
257
397
637
751
288
305
577
768
491
244
440
729
597
312
396
653
714
340
285
553
780
477
287
470
687
668
213
389
643
725
356
310
580
779
482
240
493
685
653
251
374
676
730
333
316
539
800
480
259
494
667
667
281
387
637
743
321
290
548
805
531
233
490
690
648
246
374
640
752
326
284
556
745
542
262
480
687
655
210
414
641
742
325
313
575
756
503
273
448
734
631
191
403
652
741
337
274
596
771
495
261
465
674
648
243
404
625
738
389
285
531
786
506
255
465
665
673
265
383
629
755
357
279
572
759
507
249
512
662
643
276
394
636
750
328
317
506
816
509
241
483
657
660
248
414
614
755
361
334
528
793
497
265
457
682
644
266
379
685
740
358
337
546
790
501
252
453
686
645
277
389
600
759
381
284
539
796
512
272
456
679
662
285
369
643
766
365
295
523
799
489
234
482
686
644
304
376
636
747
343
250
591
777
495
270
454
678
663
277
347
665
792
341
309
538
790
514
204
493
686
665
291
385
610
736
380
251
604
773
531
273
434
617
730
280
338
635
781
359
299
518
777
542
254
459
645
686
313
388
589
774
395
251
541
800
514
255
415
671
683
291
363
616
779
355
311
531
766
545
268
421
678
687
298
350
630
744
439
245
545
792
536
241
440
654
662
312
359
613
733
394
289
549
775
550
265
415
654
670
325
360
595
778
386
289
529
759
519
279
466
638
677
315
379
611
756
372
314
513
751
549
251
397
659
763
265
373
606
773
390
257
528
779
543
227
479
630
715
302
355
601
786
375
264
514
766
559
269
388
666
652
339
331
630
785
364
311
515
749
567
253
431
679
645
334
364
619
764
385
279
504
774
591
252
425
658
680
298
329
648
774
412
293
543
723
609
233
440
663
689
316
362
611
790
407
277
483
743
572
293
394
675
710
338
330
584
785
419
269
514
757
563
255
398
639
787
283
343
624
773
421
264
479
778
625
249
423
657
668
305
315
586
838
417
268
533
747
558
240
399
688
685
269
358
597
775
421
255
529
762
588
256
464
643
689
313
327
593
798
434
266
505
728
588
258
418
682
678
326
329
603
781
439
271
508
744
601
219
410
661
695
299
317
597
795
431
274
511
743
580
250
432
628
719
288
358
600
784
429
301
528
729
591
287
417
638
691
308
384
570
790
470
270
503
726
621
240
355
706
703
314
302
587
801
420
261
546
720
598
228
462
612
704
315
326
595
781
473
254
535
729
622
238
424
658
696
299
378
596
766
466
254
559
738
606
262
430
659
718
281
347
594
789
399
352
531
737
633
260
392
627
734
263
377
582
830
451
260
505
695
627
220
425
658
710
302
317
568
785
465
273
507
689
675
230
431
636
728
333
288
601
754
517
244
507
726
665
217
377
724
722
244
365
562
773
464
346
488
684
649
230
431
646
724
292
301
591
738
462
296
497
730
597
216
479
669
709
316
326
588
747
498
254
519
720
653
234
404
663
727
295
313
583
742
507
273
480
760
663
244
372
639
703
315
270
673
745
542
256
480
719
637
258
387
652
693
325
274
590
773
504
227
563
723
672
231
443
637
732
292
288
563
780
454
283
499
684
709
234
449
614
696
353
309
562
791
451
251
505
686
657
249
409
619
731
340
274
610
776
464
289
484
706
641
224
422
637
726
276
307
607
769
477
296
514
701
651
199
400
673
746
324
312
562
782
488
242
492
677
690
272
359
679
764
347
350
555
783
473
243
477
706
670
248
366
649
750
336
243
590
783
486
235
484
681
688
214
422
616
750
355
280
594
780
494
255
483
685
644
238
410
596
777
357
283
566
769
537
242
481
715
657
247
418
621
710
345
308
562
775
479
262
448
656
666
274
437
633
796
314
302
545
768
489
283
454
661
687
223
380
643
768
344
275
538
776
524
270
458
682
665
259
372
596
778
344
291
556
823
477
271
454
684
647
263
385
642
752
353
293
570
786
494
282
473
647
685
267
385
636
755
345
282
538
789
487
280
474
665
650
265
384
669
752
353
285
540
753
517
232
479
666
684
268
408
595
781
370
315
522
788
542
231
453
669
666
293
377
637
753
358
252
548
799
500
247
484
698
633
293
370
622
749
381
285
514
777
536
257
444
656
687
255
368
620
741
357
317
504
764
578
268
440
683
670
283
394
582
757
365
359
543
792
477
262
414
737
611
304
374
654
757
352
256
593
766
538
284
454
585
699
262
336
724
747
386
349
475
794
534
216
447
674
627
290
324
638
757
393
266
511
829
550
215
481
657
755
245
367
577
890
375
238
507
823
538
231
443
663
663
265
367
611
786
343
256
512
774
578
273
406
665
695
269
350
605
780
317
291
519
755
535
280
492
631
687
271
386
572
794
406
229
536
759
547
237
454
658
669
300
343
632
752
371
294
525
769
542
246
457
642
670
254
410
624
776
378
314
515
699
569
220
462
595
717
220
400
637
767
401
246
505
719
638
246
439
669
685
240
384
568
767
488
309
480
771
578
258
401
699
681
321
318
637
761
402
296
531
746
566
246
440
667
685
289
331
634
780
389
291
516
734
566
266
419
672
740
316
337
609
786
373
317
522
766
579
249
441
646
699
285
346
601
754
449
260
528
729
628
222
416
646
680
354
325
563
823
428
286
492
769
565
245
423
669
693
282
326
640
822
415
296
481
716
593
248
426
671
693
300
307
581
757
446
299
493
769
583
260
405
639
686
273
375
615
799
401
244
536
719
590
253
431
616
770
277
382
623
789
439
212
481
786
598
268
428
650
691
273
317
640
760
438
276
525
737
564
262
435
646
696
303
332
615
802
457
246
489
769
600
200
460
688
715
290
320
579
766
494
219
541
737
600
256
411
681
712
255
336
595
792
450
241
542
686
597
267
400
661
734
276
330
588
773
439
287
502
715
617
252
446
657
705
278
366
537
766
446
268
492
722
658
238
406
649
695
384
310
595
792
486
270
479
715
644
287
395
685
703
302
324
591
798
446
261
495
735
659
223
419
662
703
287
334
579
782
460
306
441
734
646
239
432
641
677
354
308
568
723
575
270
490
705
650
236
394
627
758
312
290
659
750
473
272
493
707
650
199
475
661
722
319
261
603
769
460
302
508
687
670
243
326
680
765
322
279
577
818
462
290
459
721
670
238
368
632
773
274
318
532
881
475
262
472
747
660
212
399
649
737
291
289
549
773
506
272
499
722
651
183
424
617
771
293
316
578
800
444
277
512
736
634
238
401
687
721
316
310
561
817
473
253
461
709
685
224
432
627
750
386
303
549
807
479
281
493
647
705
234
385
653
745
333
301
551
813
494
274
484
699
686
250
312
755
757
317
312
571
772
468
258
462
687
683
228
409
625
765
324
329
553
780
487
246
492
676
684
244
413
632
732
340
304
570
728
554
272
475
688
682
248
386
631
737
344
311
572
731
403
380
468
684
679
239
361
626
686
419
290
563
774
487
263
473
721
682
265
368
610
771
397
270
580
777
435
299
464
687
667
222
405
623
734
354
304
556
746
506
273
468
684
670
239
377
634
720
394
234
574
770
496
234
480
657
686
250
372
629
767
342
288
565
774
481
266
459
743
598
283
331
658
744
350
287
576
770
490
257
452
684
678
254
403
627
746
328
309
530
779
515
236
459
706
645
314
358
609
778
369
261
548
806
499
259
461
684
658
257
402
620
795
361
283
543
777
496
287
443
686
641
300
363
608
738
369
264
532
791
487
268
467
676
662
268
364
607
791
355
284
530
767
514
282
416
677
698
262
343
618
737
405
288
547
781
524
240
437
685
664
279
380
640
747
383
259
526
715
586
250
486
677
663
251
399
621
760
376
296
539
763
486
261
462
687
683
252
357
654
742
353
307
559
775
554
278
442
665
668
282
362
607
764
376
279
537
767
527
266
438
674
667
296
368
581
774
381
282
549
782
534
252
455
660
677
295
387
604
793
333
372
574
778
522
247
446
646
654
287
371
619
786
360
299
541
782
520
242
464
668
664
260
365
629
787
351
285
484
830
504
267
417
683
667
291
355
599
779
403
291
526
760
565
242
458
662
668
286
387
575
772
387
292
502
755
573
267
407
679
676
303
333
607
806
383
282
513
783
551
231
418
663
674
331
328
626
769
377
280
511
776
554
289
438
669
676
273
328
626
767
405
255
523
767
553
255
410
684
682
297
347
594
754
422
310
520
769
545
263
423
668
685
311
342
625
764
392
277
512
777
560
255
423
674
697
294
348
610
776
429
279
517
762
558
241
436
654
682
301
354
606
769
392
327
523
686
640
244
438
654
682
282
342
603
770
406
290
519
757
563
261
430
629
684
344
326
649
745
350
308
569
724
592
270
429
684
645
305
349
631
777
398
279
499
736
609
270
