661
503
562
577
514
629
525
502
598
526
664
418
497
562
491
498
465
529
595
494
534
508
652
639
395
491
610
592
574
515
629
481
522
433
624
479
654
419
600
548
638
537
574
363
640
537
464
551
645
549
483
578
560
667
554
485
516
526
519
468
656
636
490
480
444
684
721
557
479
487
759
507
466
647
581
588
472
503
622
741
560
458
459
622
327
499
553
557
506
356
687
709
664
594
463
579
538
652
441
607
633
581
624
488
429
651
626
650
574
557
575
652
297
673
485
227
496
417
679
304
457
466
640
479
535
588
710
581
593
630
483
695
536
598
509
600
443
495
537
565
579
550
623
627
664
244
476
592
544
538
537
614
700
612
170
590
592
572
546
475
507
671
532
533
510
694
611
429
599
692
668
409
501
531
466
526
348
593
497
554
516
698
520
608
554
616
497
646
565
517
588
473
616
560
556
531
610
641
424
554
625
837
556
489
679
633
443
490
586
653
512
552
538
599
536
207
620
345
540
591
406
669
499
476
537
529
613
482
469
556
687
571
618
512
579
589
471
526
504
709
443
552
720
547
544
398
633
521
598
325
510
607
613
626
629
527
683
583
373
665
551
626
554
564
387
735
542
444
639
657
405
643
605
519
698
503
610
609
576
576
624
647
620
595
499
497
578
681
325
570
485
647
531
173
482
559
615
444
580
606
629
490
526
430
698
462
160
699
313
651
477
307
597
692
442
536
511
694
414
561
550
627
770
459
534
650
552
403
531
470
754
620
557
655
684
477
474
604
540
686
582
566
478
646
523
650
467
639
590
462
623
481
642
574
462
537
719
441
479
618
570
622
570
567
628
495
593
651
502
583
558
45
598
360
585
502
406
561
676
510
579
668
736
554
32
569
533
393
524
562
554
551
472
652
463
662
428
497
495
600
501
443
541
639
567
597
549
542
660
538
268
480
395
517
559
452
582
641
436
650
614
408
607
483
551
479
652
507
620
532
734
499
504
374
607
543
472
590
661
587
451
616
617
642
522
546
505
653
489
546
502
670
616
469
518
555
677
615
483
311
519
494
403
819
631
641
577
545
646
517
462
603
464
729
445
567
556
384
558
359
495
698
650
525
522
478
668
479
464
568
577
657
428
622
588
532
684
548
456
669
576
248
693
692
478
571
539
557
577
556
521
493
697
561
511
570
551
559
462
504
600
623
298
440
596
600
532
436
499
641
619
553
535
539
608
483
482
520
651
472
555
551
676
486
477
543
587
744
370
753
494
581
638
573
614
587
693
540
428
826
588
616
566
497
561
565
503
539
694
557
447
495
634
621
545
494
558
680
475
410
700
539
573
439
671
612
547
561
617
434
613
582
2
510
610
445
575
587
404
735
581
508
494
708
583
370
738
371
812
466
619
698
627
565
461
394
701
531
469
593
580
498
498
510
620
577
554
547
522
648
544
467
519
516
700
568
660
622
623
542
489
566
600
590
178
581
576
362
553
428
734
602
516
536
633
539
485
122
558
406
604
474
527
615
516
474
548
354
689
449
528
571
618
511
428
520
600
227
505
599
456
733
588
537
529
525
682
490
509
562
638
442
402
575
602
602
521
574
474
691
503
563
597
573
557
564
464
647
540
203
548
464
603
536
438
683
787
556
523
464
586
550
394
491
505
478
396
623
687
697
481
517
472
587
466
632
685
719
518
531
447
532
579
102
655
268
759
126
454
258
728
296
595
582
594
625
416
492
519
558
540
493
571
530
657
518
709
516
684
674
476
505
619
509
35
578
353
586
426
301
676
158
540
371
613
587
625
561
701
603
418
627
536
693
559
561
537
163
597
503
626
534
692
554
457
530
736
299
482
508
270
585
490
194
494
285
376
490
561
607
601
557
612
443
728
542
526
491
612
645
460
324
738
585
140
658
534
753
542
537
642
685
606
439
502
602
630
170
660
533
629
582
2
645
247
695
481
113
739
629
558
473
150
611
445
607
512
599
608
485
510
641
582
136
563
507
584
614
194
547
437
434
496
714
495
642
525
535
444
516
497
527
650
568
468
445
521
602
648
551
494
269
552
523
443
704
649
506
520
200
721
562
437
560
698
646
549
486
502
656
504
442
491
707
550
602
629
429
754
649
491
473
716
544
444
576
656
529
131
542
521
620
473
278
545
426
566
465
348
714
461
504
357
570
675
567
299
559
364
748
415
784
670
534
624
592
491
545
477
149
556
446
569
461
497
638
614
459
541
576
649
586
423
622
701
534
489
641
640
581
517
542
451
591
469
497
457
573
579
441
390
931
629
542
563
579
586
533
25
621
321
526
603
572
584
636
440
499
299
640
472
545
620
595
492
471
466
652
636
534
504
463
633
560
424
771
586
640
431
393
1023
472
356
759
517
698
606
493
507
614
608
416
581
598
671
440
509
566
591
463
480
501
584
599
451
518
585
706
478
474
250
616
523
174
622
509
520
538
503
520
565
417
539
212
647
44
599
468
325
775
355
646
682
565
484
511
565
498
509
0
580
353
565
534
218
636
638
446
475
556
613
515
610
564
636
613
576
529
567
676
464
534
251
640
494
658
625
517
562
552
496
674
670
444
474
564
630
499
194
553
568
256
514
564
582
699
443
506
434
765
506
546
518
568
535
540
489
721
609
512
555
483
578
487
147
626
439
568
481
151
976
546
425
531
510
664
498
529
590
592
632
454
502
626
645
507
494
479
810
486
474
523
659
549
518
638
593
673
589
503
478
674
439
676
533
697
531
458
542
659
547
479
541
420
890
556
279
651
639
279
468
472
562
558
548
616
254
624
468
653
542
550
595
491
495
646
574
533
675
389
700
496
467
572
545
606
544
752
574
611
214
588
498
567
497
204
615
622
189
501
491
607
685
439
504
601
674
451
544
575
624
678
459
537
643
559
440
522
344
640
460
510
568
599
496
465
681
614
601
451
544
548
571
489
184
529
433
547
442
230
694
560
413
538
537
721
511
324
599
616
487
482
557
669
500
437
666
540
598
521
148
521
476
544
456
554
658
539
460
526
501
674
470
511
661
635
527
553
563
594
580
489
545
574
595
472
188
651
349
480
771
632
528
411
604
479
514
610
495
697
533
631
669
452
491
600
563
565
501
541
509
604
156
524
481
594
484
508
636
611
558
436
504
725
497
598
531
547
325
623
590
614
600
455
533
480
614
595
612
538
665
686
412
456
631
550
515
520
596
685
459
542
532
482
528
495
507
584
693
470
483
566
610
581
527
586
627
565
549
587
651
485
487
479
509
596
552
232
596
503
505
478
497
555
730
480
663
600
729
425
212
562
485
567
507
661
610
550
385
493
642
337
720
616
522
613
504
494
560
546
652
508
488
599
584
513
141
498
698
662
493
459
757
608
348
476
533
599
494
390
593
588
648
521
529
621
643
496
501
509
650
482
271
513
490
466
536
533
673
612
419
542
485
660
520
677
541
643
508
511
539
632
588
396
438
571
748
449
622
545
618
596
471
448
554
641
464
527
504
747
443
486
511
582
636
553
556
842
535
462
641
528
590
510
241
482
505
604
475
230
651
658
453
473
559
754
466
450
581
587
515
541
488
587
603
616
454
518
689
484
190
569
452
549
508
253
612
611
485
486
605
647
477
483
641
500
529
541
540
612
566
489
536
511
612
568
471
262
639
487
506
543
640
522
326
602
518
629
488
519
576
615
564
502
210
714
646
417
517
588
697
400
271
492
574
609
405
526
610
647
365
510
508
694
220
531
482
656
681
438
555
621
624
435
464
558
558
544
89
592
553
545
494
231
602
552
507
538
538
761
463
434
565
591
506
451
538
675
581
345
507
508
714
453
567
586
639
542
493
553
676
600
459
543
595
587
413
197
543
584
262
467
570
613
663
363
561
529
545
541
497
564
569
634
524
270
635
562
424
565
535
531
514
205
542
601
169
503
496
673
518
561
533
482
739
428
463
620
629
473
542
434
281
705
420
502
560
714
494
604
582
620
592
451
601
633
561
432
614
594
606
490
469
697
507
587
582
665
666
533
443
576
516
700
465
450
605
623
720
494
682
574
539
437
624
494
616
524
514
628
532
644
490
698
613
620
505
269
435
567
451
269
619
699
531
435
728
563
515
678
534
498
650
458
490
489
592
445
464
664
548
564
367
543
502
402
506
538
487
641
626
465
505
707
508
471
560
487
657
500
605
484
759
489
456
617
594
570
299
572
563
734
478
502
512
561
549
452
487
724
535
347
654
545
603
483
180
506
493
574
493
668
608
527
348
562
508
633
492
214
564
587
548
311
561
665
553
447
383
578
568
502
334
534
561
564
469
515
644
507
588
618
517
670
506
206
532
558
266
516
506
664
571
446
577
531
736
456
477
554
608
536
522
607
650
528
357
538
525
673
501
280
510
558
598
517
331
654
564
395
447
666
718
521
508
452
730
509
430
519
696
604
308
577
277
698
485
502
541
620
617
498
420
754
496
500
508
559
595
461
130
535
701
304
547
489
656
525
365
573
303
627
515
276
698
479
540
496
595
678
596
548
514
485
882
573
487
575
700
633
498
563
652
626
537
507
391
817
65
488
319
572
513
497
594
623
491
409
578
424
604
533
549
536
565
508
525
510
641
532
510
569
580
575
569
317
544
520
502
438
576
688
526
505
506
538
581
460
536
545
652
523
496
445
576
607
344
513
326
676
458
584
477
571
693
504
499
551
604
488
535
580
607
471
469
506
619
544
479
545
620
561
474
512
568
619
524
342
519
601
551
461
523
627
551
522
464
571
587
479
310
483
583
788
493
533
613
564
416
527
545
598
558
470
593
569
527
444
516
683
560
496
579
591
581
481
482
514
540
553
489
326
540
442
543
552
688
583
508
304
514
586
492
493
578
607
557
337
511
607
682
445
558
587
570
557
380
516
673
513
488
580
543
828
520
435
620
595
550
512
577
645
509
532
504
635
589
461
473
514
565
633
483
531
600
629
465
494
538
613
465
172
561
657
502
516
532
503
624
542
439
553
653
529
253
519
522
464
502
512
588
604
528
567
577
635
458
579
584
802
570
479
613
486
519
358
472
373
614
507
501
481
636
646
483
627
654
427
450
471
556
580
527
644
520
659
659
509
631
551
612
455
559
549
540
473
230
603
531
534
605
497
631
528
468
536
563
553
546
309
522
586
543
498
483
683
521
331
577
530
599
487
487
518
605
505
501
514
633
577
413
551
619
557
521
229
479
618
564
603
531
641
497
459
506
344
684
483
487
487
570
480
556
539
633
605
463
758
528
569
554
622
560
577
503
418
547
579
630
463
514
555
581
502
491
499
631
506
439
501
573
613
463
581
546
658
443
497
468
623
526
490
517
593
506
487
574
543
634
580
478
574
632
471
540
608
555
553
395
578
576
561
540
525
522
612
499
497
510
522
606
525
541
642
584
452
471
525
558
539
521
514
573
626
503
522
621
614
472
466
519
551
695
438
415
813
590
483
577
605
609
475
623
604
509
564
524
551
553
495
445
568
569
582
490
492
491
622
504
506
530
566
502
562
483
549
697
457
341
527
641
515
434
509
632
490
376
583
390
655
230
476
557
573
502
538
674
543
616
340
504
495
600
419
520
534
638
553
570
490
606
529
474
559
500
717
425
354
539
715
425
464
564
617
565
409
500
540
611
401
513
428
697
495
463
509
587
653
467
517
571
661
470
492
500
544
504
552
510
576
583
391
504
542
572
542
541
452
633
500
468
549
571
588
458
513
613
551
444
536
543
576
507
517
484
648
606
476
490
554
585
448
484
565
538
506
489
568
587
525
418
615
544
564
503
495
508
607
490
553
499
558
566
513
479
579
583
437
496
497
591
579
441
555
587
574
425
494
561
610
493
502
518
609
505
497
604
554
577
489
525
574
578
454
531
561
571
540
450
495
649
584
392
540
645
514
538
453
569
573
541
520
533
571
535
487
512
578
591
479
461
586
639
496
435
541
635
531
477
510
587
614
447
482
488
628
496
519
526
509
579
603
443
600
708
469
470
487
622
506
473
539
595
556
492
500
541
680
475
530
502
650
637
471
514
566
615
478
472
521
606
458
536
491
623
511
497
607
524
571
528
501
569
548
501
488
499
623
537
492
471
597
530
444
554
576
642
482
463
435
630
516
458
512
634
639
492
489
554
605
457
509
511
593
549
492
508
557
575
516
458
633
627
416
467
548
593
523
495
516
629
504
419
590
600
540
500
500
492
628
558
470
498
620
530
423
521
634
552
466
536
553
609
455
568
453
611
555
489
517
562
549
463
522
503
629
508
432
563
632
496
491
524
556
561
511
475
539
604
500
454
515
614
567
452
542
624
567
483
507
581
547
493
579
485
614
538
466
507
528
578
512
589
516
608
540
509
531
577
463
534
590
530
665
464
505
473
565
529
534
492
730
477
466
554
479
616
454
528
530
584
467
491
661
527
574
452
504
538
620
471
529
607
660
463
459
502
691
500
445
572
629
607
460
527
528
632
471
446
621
560
579
504
499
613
579
425
563
485
633
540
469
578
610
537
475
575
534
536
584
497
463
676
527
447
524
631
536
496
549
553
612
487
509
494
642
540
460
576
607
564
466
512
572
555
375
641
461
682
543
486
485
660
424
486
612
547
604
446
501
510
616
488
490
496
667
501
484
651
558
577
490
477
471
623
548
540
520
615
503
625
448
537
596
575
510
483
607
505
478
494
607
536
485
505
591
619
449
490
572
580
507
532
548
596
537
470
569
499
609
459
562
558
579
475
490
521
585
578
443
506
649
577
540
491
489
744
492
471
564
597
489
466
562
626
611
459
508
501
609
472
525
510
640
583
442
487
616
565
430
597
497
558
555
532
486
633
466
578
612
505
602
488
494
533
564
504
537
536
687
481
439
616
545
558
558
446
476
666
471
491
555
605
513
444
562
535
585
479
485
555
599
530
519
482
658
587
449
557
552
561
455
492
515
695
485
535
602
547
515
469
497
532
698
437
507
536
604
517
473
493
640
535
489
459
540
662
393
533
503
702
448
470
519
643
529
452
530
513
566
548
498
513
614
477
499
611
550
545
529
503
567
601
552
502
477
614
515
490
546
615
532
460
509
546
594
528
537
516
592
601
412
553
600
541
430
532
492
638
527
494
537
588
530
475
548
625
517
457
542
559
671
464
490
558
574
490
467
564
527
618
538
459
578
666
454
458
536
652
539
453
606
579
558
466
505
519
548
581
569
481
671
531
450
510
554
510
518
505
550
690
459
508
556
601
478
485
492
663
447
474
593
514
637
479
492
498
558
503
616
478
579
558
432
575
581
563
454
490
524
558
483
549
515
590
506
446
540
546
606
504
429
502
603
566
410
521
694
497
479
511
499
625
537
467
567
583
415
604
577
531
529
612
497
501
575
472
570
499
647
544
494
453
566
629
477
568
521
529
501
550
464
695
427
507
634
563
464
436
488
593
601
525
619
540
696
462
409
478
610
546
484
532
593
616
456
533
525
619
494
489
524
614
595
449
473
598
510
650
439
440
680
573
402
473
597
550
489
520
569
593
439
548
525
644
497
483
510
653
512
500
559
528
691
466
479
493
635
469
486
551
654
465
505
583
510
699
369
509
640
562
454
632
630
533
473
494
519
448
699
508
475
530
680
454
480
546
553
576
399
571
608
532
536
556
460
702
472
504
516
615
496
502
507
574
639
462
511
561
547
442
680
485
640
537
471
424
698
554
467
506
551
626
512
492
547
616
501
473
486
557
668
482
634
469
657
492
462
493
575
611
467
580
533
586
488
559
504
629
497
512
469
737
541
405
545
601
531
457
462
527
694
519
463
522
639
498
495
508
499
699
417
425
542
628
452
481
472
574
540
467
519
555
658
423
563
518
623
422
655
442
661
623
467
614
532
550
497
517
490
643
549
471
508
540
659
455
484
472
718
529
510
618
647
432
442
442
602
531
508
545
590
561
437
559
481
588
650
643
498
575
633
436
472
499
559
510
526
488
637
511
540
514
629
583
440
466
533
695
448
537
605
628
435
462
498
574
535
503
515
610
654
479
488
563
649
378
667
511
568
572
522
484
542
608
435
516
558
624
472
487
441
709
543
456
500
480
670
433
470
588
689
498
455
494
648
489
473
531
502
598
476
503
559
578
500
506
491
684
521
441
499
551
619
549
459
541
627
522
422
532
653
511
499
577
556
602
457
562
530
581
436
543
547
589
484
468
648
545
567
470
560
472
596
571
559
507
631
496
459
472
539
721
497
548
550
551
554
495
486
583
569
564
528
579
620
552
380
646
561
525
452
555
563
515
498
539
606
571
482
543
497
575
478
573
511
623
509
498
510
562
524
508
479
679
602
465
531
604
519
510
462
556
573
589
475
472
563
644
508
425
532
651
510
516
555
557
616
501
496
528
689
458
489
508
604
495
501
570
630
637
397
469
588
531
539
592
446
609
637
390
509
584
604
467
532
525
508
540
575
513
544
577
525
550
592
582
487
482
506
651
506
484
551
620
505
470
571
634
533
498
534
591
620
493
521
491
580
494
456
544
614
590
499
529
545
543
470
597
499
600
516
536
496
527
601
444
529
592
606
484
413
537
700
494
529
528
551
588
448
532
574
577
469
481
491
621
544
518
491
676
549
427
559
537
644
400
579
519
635
526
476
499
650
554
510
553
464
679
488
487
497
611
523
465
553
586
582
470
498
505
558
574
460
533
635
537
476
503
509
612
565
559
542
640
420
488
562
583
577
495
515
645
552
467
494
490
648
608
478
485
534
529
628
521
590
609
473
552
546
559
496
456
559
599
507
531
531
593
496
507
481
632
629
482
590
493
552
482
478
556
561
531
613
564
544
557
491
466
464
697
498
497
484
559
582
498
525
574
640
415
500
532
599
497
621
567
554
510
423
642
497
610
565
488
502
641
468
439
545
645
498
485
584
531
637
528
493
430
627
625
452
571
619
561
464
531
526
623
459
496
536
678
449
475
585
699
544
465
498
547
585
427
558
508
589
521
489
446
620
478
518
557
546
626
480
467
619
577
485
522
479
521
521
502
484
627
658
482
465
505
544
503
525
474
625
510
487
618
503
643
440
532
502
590
467
451
645
674
541
458
512
537
558
508
501
541
645
596
464
493
626
512
466
494
632
606
460
556
503
622
459
475
542
585
586
462
488
536
691
508
520
530
584
523
425
526
715
500
519
653
518
566
451
486
512
596
511
546
519
657
538
425
530
520
719
451
528
501
658
473
488
480
639
543
441
510
584
670
423
508
549
641
407
514
485
623
547
483
491
555
679
399
482
628
543
497
514
533
547
516
509
525
567
614
532
554
450
650
485
541
482
516
573
484
550
592
568
380
633
483
558
489
613
532
587
543
468
500
498
656
425
566
555
677
461
456
513
581
517
408
490
608
693
505
497
524
677
465
542
541
638
521
415
574
530
622
523
526
461
597
526
453
552
649
543
458
466
689
506
381
650
592
608
477
552
562
529
457
505
557
567
579
476
525
524
586
474
603
486
618
540
480
582
634
597
479
493
525
614
483
487
566
640
454
456
604
563
613
465
514
516
581
422
558
557
627
549
453
553
550
529
499
510
495
578
514
540
566
595
505
447
596
502
693
453
559
486
619
502
451
543
621
508
468
495
591
587
483
559
543
504
510
612
460
618
564
432
544
607
505
475
590
499
608
505
477
552
689
504
528
470
603
626
416
558
539
601
479
529
655
526
589
482
546
612
508
433
560
484
638
505
444
552
620
508
490
475
600
662
480
540
534
599
501
462
523
547
524
510
559
626
607
477
492
531
606
463
519
554
591
542
496
475
489
608
418
533
548
697
468
514
510
555
539
474
543
587
569
469
557
495
631
591
462
472
606
492
503
626
570
616
511
494
559
625
459
466
527
651
469
487
569
575
577
446
520
492
600
485
502
588
594
536
504
523
505
498
689
503
558
654
501
407
481
563
535
562
488
645
619
431
499
559
663
478
420
515
659
440
482
535
650
495
505
575
495
627
501
505
486
600
564
479
508
589
587
459
518
579
603
445
496
516
550
583
537
482
618
540
438
631
528
651
432
517
488
638
497
537
506
632
529
419
477
553
643
413
556
520
534
552
444
531
630
538
470
524
560
618
510
435
520
552
524
508
552
582
595
487
478
557
682
484
483
480
565
598
517
512
593
558
444
467
565
670
503
527
508
624
507
462
514
637
504
509
544
514
700
484
503
479
590
496
482
513
601
582
544
519
552
620
427
510
443
662
591
493
530
586
495
477
541
550
606
525
464
467
659
527
475
574
617
486
465
476
601
580
519
535
527
641
475
488
510
603
575
440
581
617
604
510
482
583
507
521
602
509
614
566
516
489
544
558
514
504
519
563
638
527
497
621
573
441
501
530
616
490
480
544
605
511
523
520
587
510
431
510
650
588
529
559
498
598
458
465
522
649
474
515
526
551
610
440
486
505
700
476
539
567
564
508
521
497
568
658
399
543
577
596
489
577
434
595
630
447
548
577
571
474
466
537
637
557
506
500
675
532
461
505
529
603
456
464
555
674
459
503
486
618
539
508
502
607
645
388
548
561
601
550
474
519
601
502
517
508
626
629
399
531
491
631
540
466
529
658
495
476
483
577
622
427
477
654
580
527
493
583
539
535
497
489
608
645
464
505
483
670
476
445
594
667
514
432
532
576
625
474
491
549
600
483
496
589
600
492
473
667
550
608
474
537
490
602
476
504
527
631
521
524
529
585
546
451
480
552
656
493
499
616
557
496
483
453
675
616
460
533
523
588
478
510
527
601
508
525
570
552
610
470
453
520
616
487
485
570
567
553
435
564
685
568
491
496
444
662
516
487
573
644
509
411
559
542
650
519
536
533
614
480
455
567
604
523
522
475
700
524
470
571
567
597
460
482
533
607
551
492
511
583
595
481
469
590
576
473
479
577
652
638
414
544
634
543
479
550
503
613
477
509
508
555
547
504
426
653
748
401
516
499
650
538
402
510
669
524
459
501
565
609
398
611
689
576
508
509
429
625
639
382
555
634
558
427
469
517
660
503
514
457
509
550
562
574
516
625
664
417
478
634
512
443
499
663
537
431
554
686
530
469
503
563
642
484
528
486
615
484
398
533
632
598
492
572
505
622
498
506
502
604
482
461
491
532
595
360
615
815
371
651
696
139
764
520
679
478
577
539
688
404
556
555
624
511
507
601
487
481
543
621
507
474
521
656
566
493
463
480
786
487
441
601
606
599
388
565
569
621
494
449
539
527
507
563
531
555
626
360
652
570
501
532
598
460
552
447
534
557
592
563
463
470
640
560
490
559
527
607
461
396
547
679
539
391
596
512
564
516
566
434
670
555
452
518
631
495
494
478
644
569
602
463
510
583
575
447
493
636
656
449
521
542
589
451
511
477
684
534
584
540
572
539
464
581
523
560
475
422
562
539
511
520
624
611
513
480
454
540
666
430
610
543
627
559
444
506
624
485
509
573
525
592
463
698
408
616
516
575
495
684
510
484
528
563
505
471
537
490
734
557
580
490
619
534
434
423
566
742
517
485
632
607
482
430
457
699
486
522
563
596
598
454
485
618
585
506
482
606
596
544
438
575
613
580
458
551
567
519
447
594
518
581
501
452
636
564
508
506
499
492
579
461
498
560
682
479
493
542
548
525
503
544
506
655
579
463
528
649
468
478
566
555
587
555
487
505
647
501
434
625
614
472
482
621
544
542
556
529
512
640
552
531
486
545
585
496
464
661
600
396
462
537
651
500
497
505
615
527
473
510
604
607
444
484
506
675
568
448
544
624
326
507
620
554
665
476
552
479
594
472
505
538
573
552
405
629
537
623
483
508
525
586
483
512
505
642
513
482
554
633
583
453
437
519
746
398
500
568
615
570
440
515
571
575
481
519
517
594
508
531
501
552
542
458
482
735
588
480
571
546
596
456
442
626
599
545
496
556
604
549
447
529
515
653
456
464
624
593
512
504
551
530
577
464
498
525
632
456
556
618
548
585
442
536
690
559
474
523
554
624
399
567
541
598
531
462
498
638
493
530
566
484
618
531
502
533
623
573
461
529
571
641
454
496
564
612
483
474
443
576
685
488
472
696
545
437
536
511
600
496
561
491
586
555
490
534
561
545
573
437
581
680
461
428
505
695
440
498
577
565
505
497
547
559
659
480
510
533
538
551
491
510
637
623
456
498
506
658
415
502
525
628
494
475
486
574
613
453
501
615
563
497
532
448
684
496
466
483
656
690
426
544
563
521
495
445
507
666
513
499
495
568
551
456
512
608
551
501
510
487
510
578
507
524
586
555
576
466
524
650
488
486
472
593
515
457
555
624
545
457
479
652
634
411
547
556
566
524
479
529
552
588
490
505
575
557
505
539
495
619
506
499
490
580
462
596
682
480
677
508
430
483
583
517
506
546
626
559
471
529
560
593
467
515
449
667
540
455
533
677
476
478
516
531
609
479
524
517
554
549
573
491
626
578
427
508
619
657
459
460
554
583
486
486
547
623
535
506
486
540
644
464
501
491
622
513
485
617
602
528
535
456
607
611
444
493
528
653
486
485
552
572
531
461
498
595
595
482
605
491
536
632
459
518
552
692
492
441
615
536
462
502
521
569
514
481
532
633
528
504
502
561
633
478
527
528
595
525
454
565
575
543
461
473
535
592
465
517
576
519
529
588
501
573
474
570
553
488
699
480
495
508
619
475
529
546
612
534
461
536
577
608
470
515
528
605
446
546
585
552
553
594
553
549
600
465
549
458
574
472
519
548
590
592
425
526
598
577
423
510
517
665
501
554
532
619
544
392
485
585
571
555
541
519
636
441
560
485
557
566
480
607
554
608
493
509
475
574
591
486
523
568
474
519
544
567
588
487
484
471
713
390
563
629
499
587
496
529
546
600
565
500
487
610
463
526
492
603
516
516
489
574
575
508
555
482
633
525
490
500
566
495
500
515
574
649
454
514
514
603
492
485
532
620
502
516
466
513
747
496
415
501
718
474
481
560
630
523
495
417
569
787
372
527
585
652
453
469
502
582
514
453
526
564
661
497
493
579
571
432
652
533
520
542
475
544
598
631
426
539
581
521
499
511
527
647
508
504
496
502
623
501
527
472
664
503
501
473
621
582
439
519
544
610
455
533
508
663
486
576
477
593
555
499
532
499
653
401
556
589
559
503
506
499
559
536
469
482
554
635
496
484
543
623
483
473
460
597
605
423
513
650
606
463
514
541
627
469
466
620
549
521
565
499
572
592
455
532
521
588
462
486
488
754
501
468
544
540
564
455
518
552
650
468
470
574
602
508
520
551
576
591
549
442
570
635
490
494
486
643
570
452
527
623
547
449
472
518
657
483
524
590
589
531
454
532
629
528
492
647
494
614
476
505
497
561
535
497
519
570
578
457
546
556
619
502
493
497
585
504
445
581
519
700
446
470
555
619
417
467
482
641
564
490
488
599
558
420
525
604
545
472
540
573
553
544
480
514
563
579
478
534
549
604
458
509
533
534
545
458
502
704
521
511
560
515
608
441
472
519
629
518
477
606
590
583
473
509
559
617
441
483
636
565
515
481
517
618
569
487
481
539
662
429
481
690
550
516
526
441
620
649
417
551
547
610
435
497
513
618
539
510
477
546
658
473
554
526
608
485
540
492
599
551
446
583
552
625
484
493
533
608
464
544
464
607
627
468
489
619
521
514
577
492
640
499
489
526
579
553
438
551
659
533
468
603
542
611
492
552
500
613
509
539
514
538
560
538
519
549
659
487
541
512
553
580
486
511
591
645
441
486
622
652
488
453
540
560
503
613
459
654
611
463
491
516
592
536
478
549
648
521
472
538
613
566
456
503
535
527
534
609
469
645
523
476
474
602
503
490
684
589
586
497
501
469
542
498
497
563
628
597
472
511
551
626
462
481
514
483
526
633
555
658
545
502
506
494
590
453
507
623
568
581
468
502
610
560
462
525
539
622
532
471
482
610
530
430
529
638
544
450
573
562
621
418
509
530
632
491
501
581
540
581
541
490
571
641
457
468
518
612
492
503
539
567
549
536
508
584
578
495
557
493
594
518
429
575
641
501
485
536
578
521
460
589
465
619
526
445
563
541
553
525
567
570
613
451
485
488
623
544
490
532
622
545
495
467
527
634
454
435
529
725
494
494
562
596
529
451
500
568
611
490
518
516
643
499
486
534
628
589
460
470
529
749
487
487
521
621
520
405
546
607
547
609
518
538
636
439
633
505
538
482
557
588
486
615
537
500
590
539
452
506
525
591
563
548
467
573
655
371
591
553
564
530
538
536
566
594
510
501
564
532
495
502
583
564
486
570
483
615
438
534
528
557
562
498
608
526
628
459
473
474
678
475
484
563
620
545
430
474
625
577
412
602
418
602
561
522
529
572
489
482
520
519
595
497
494
530
518
561
582
509
602
571
415
524
622
499
509
560
503
551
497
518
557
572
586
503
535
549
569
429
546
531
587
498
458
625
582
541
498
502
533
613
447
497
544
624
507
541
498
550
568
537
407
686
601
488
511
589
631
472
482
532
617
570
482
538
556
621
481
514
473
601
499
393
635
617
536
497
569
659
498
464
485
517
589
528
430
568
681
502
522
470
609
648
389
464
552
669
461
463
564
602
564
506
479
574
573
471
546
541
614
452
578
481
671
527
488
459
570
617
473
595
495
647
439
447
580
578
543
511
557
628
547
459
502
460
609
502
529
474
635
607
439
444
560
566
498
504
542
626
456
478
589
581
517
475
540
571
568
460
489
578
620
461
542
471
607
551
427
561
576
529
498
541
513
654
534
475
502
639
451
527
578
644
525
391
544
583
552
491
545
531
552
511
495
534
576
603
504
460
551
574
484
516
489
558
547
486
585
498
594
502
476
519
670
477
503
521
550
498
451
534
621
533
503
619
493
630
462
471
540
513
537
505
562
564
529
521
501
507
658
464
502
518
653
565
447
591
617
553
488
552
435
631
504
484
691
503
515
516
529
515
595
451
522
556
634
509
491
482
598
637
381
561
612
647
457
473
559
558
479
562
494
606
538
493
484
586
606
459
516
561
630
469
485
482
673
495
495
547
601
573
429
465
585
601
449
557
625
522
527
501
595
517
604
462
559
512
562
484
514
529
623
536
514
516
586
641
464
546
613
553
517
486
528
616
511
428
502
699
570
487
526
550
560
474
529
519
686
453
632
448
589
592
451
502
551
626
527
522
467
600
578
410
510
658
588
453
506
460
587
528
467
541
596
580
461
500
698
548
467
482
550
616
497
487
536
623
452
552
398
645
597
444
589
518
619
466
524
545
576
497
465
546
552
599
504
527
536
602
436
486
472
648
543
422
655
570
535
455
594
498
620
557
508
506
587
528
461
573
539
672
504
483
568
643
441
502
445
661
601
484
532
599
538
430
491
569
645
439
484
618
505
556
502
481
644
534
467
603
503
575
496
505
497
721
523
485
518
590
578
415
562
544
580
505
490
514
592
517
414
544
558
552
519
552
664
554
432
476
496
685
464
466
654
539
528
454
498
553
562
541
495
507
565
566
474
576
600
586
470
492
539
599
465
459
630
613
506
512
532
646
538
437
536
566
627
464
511
524
629
535
451
519
581
572
469
538
585
593
473
536
461
596
521
467
517
554
558
491
490
569
661
497
411
497
636
533
508
555
600
565
446
507
544
587
532
493
514
602
427
535
598
655
567
479
449
665
552
456
518
570
613
476
462
573
663
556
476
507
577
522
506
480
508
683
458
488
528
551
562
529
497
610
597
319
564
654
504
527
506
604
526
627
449
531
523
673
498
460
531
623
574
452
500
643
522
518
502
513
698
436
488
539
590
527
448
490
684
552
470
485
513
647
443
508
604
562
578
491
411
665
527
454
571
612
519
465
468
473
571
562
504
480
633
540
523
562
537
643
468
500
471
659
512
567
510
595
541
482
498
599
556
469
588
468
603
487
504
508
589
561
468
515
512
638
502
515
585
603
546
470
490
586
552
474
575
544
631
465
485
513
522
556
552
531
547
616
437
474
561
654
446
503
538
649
541
462
544
606
570
503
486
617
671
494
452
516
687
468
473
601
587
548
420
535
543
628
458
507
531
629
470
491
510
544
658
474
526
588
657
451
476
475
554
621
526
524
589
587
461
482
644
544
444
605
556
590
506
505
507
539
554
445
517
607
660
420
516
527
591
512
443
551
637
544
586
508
540
662
442
481
480
544
478
557
559
602
626
421
533
552
550
461
522
565
545
529
545
471
609
528
476
525
639
532
399
572
454
664
600
477
527
568
554
475
501
565
637
481
482
512
603
454
562
554
550
490
530
532
526
599
462
587
492
642
484
497
541
563
521
493
521
586
668
470
501
531
564
420
505
538
641
570
478
543
541
605
474
497
498
635
406
528
634
529
533
542
527
534
534
504
574
525
612
475
466
624
484
608
529
533
539
557
518
532
484
563
555
514
499
592
566
489
499
507
645
536
459
544
579
548
499
493
546
636
468
565
538
592
530
523
484
597
492
552
492
568
534
504
525
549
572
453
517
537
504
562
544
557
635
540
472
499
562
662
459
551
542
591
477
490
530
636
525
500
547
544
679
459
469
582
645
440
536
491
579
543
457
506
552
582
479
534
498
626
526
453
524
621
496
503
516
557
645
350
530
569
656
462
475
547
572
498
567
551
555
572
474
532
444
651
542
545
495
622
581
415
521
621
556
448
557
497
580
533
519
500
604
524
485
469
538
690
485
481
541
675
462
449
542
546
525
519
508
585
632
404
698
335
658
562
438
606
551
557
393
515
667
549
499
540
488
581
497
499
524
586
503
507
537
569
583
497
613
516
601
458
623
457
599
579
427
579
619
554
466
477
548
653
479
499
542
614
515
388
502
763
529
531
496
507
610
439
472
578
534
593
513
510
502
661
468
478
531
669
499
483
474
645
574
457
492
719
577
483
504
484
665
474
475
556
670
564
463
463
549
598
605
413
478
739
527
471
522
636
463
541
494
515
683
500
501
551
574
491
542
499
584
549
516
523
535
625
513
536
518
654
392
586
573
587
516
426
541
603
650
455
542
495
681
464
493
523
646
519
493
440
576
662
470
496
534
635
441
495
609
568
519
491
511
545
572
487
571
552
635
505
495
505
539
625
484
527
598
601
486
467
513
686
484
482
514
632
521
488
496
629
576
397
556
533
683
481
491
544
572
456
465
571
653
594
478
486
516
615
459
535
500
635
663
415
522
631
596
461
493
516
579
461
514
552
596
526
456
590
623
583
395
616
552
569
571
472
503
675
500
482
556
583
607
466
498
535
693
493
460
496
635
636
446
520
620
683
375
507
507
626
473
547
505
629
540
469
568
613
542
487
546
424
640
529
507
512
720
502
422
554
613
548
471
495
525
604
513
528
536
617
548
455
524
570
634
534
514
545
651
480
492
522
639
499
558
516
544
608
398
524
601
624
446
607
559
503
543
547
487
567
626
443
523
500
713
376
512
503
649
535
479
620
567
626
360
572
573
599
457
484
583
526
548
508
531
527
620
459
520
547
622
507
500
507
614
533
490
534
600
492
466
564
467
670
536
502
547
560
533
523
531
595
601
433
536
602
566
550
543
529
625
467
496
464
637
650
476
563
521
616
452
520
509
589
560
448
538
540
613
427
562
577
618
478
409
617
603
519
427
559
515
536
450
597
541
593
526
517
479
639
537
465
579
577
570
517
496
549
637
500
481
518
602
524
486
552
561
579
490
511
573
697
434
557
543
577
515
500
576
491
618
533
485
555
659
456
461
496
582
530
387
507
620
643
399
618
524
566
520
399
549
563
528
464
572
521
526
504
430
539
686
475
540
501
618
512
464
504
607
578
480
543
532
502
542
541
509
665
503
431
633
636
598
524
518
522
549
504
502
521
597
551
504
504
637
525
440
537
623
593
485
530
520
532
576
483
519
689
602
513
502
477
598
456
457
480
587
506
358
618
575
559
429
541
617
624
450
550
556
586
478
467
581
547
612
482
530
624
598
477
569
503
634
494
411
642
496
578
421
547
529
666
485
498
548
601
521
469
515
596
603
466
561
446
596
585
516
496
644
539
493
519
520
655
504
521
573
604
517
484
511
644
511
486
510
621
549
496
540
540
604
477
462
539
739
480
473
576
631
705
428
503
567
632
439
454
517
592
344
475
495
502
696
486
604
520
732
546
460
497
735
482
435
518
567
612
479
531
552
641
456
491
439
712
604
461
680
609
534
439
508
539
582
508
516
523
581
492
499
526
571
567
488
505
530
673
537
251
541
686
475
377
574
455
630
460
533
556
605
508
507
505
651
537
475
502
658
563
458
523
497
656
483
428
454
640
572
479
553
730
623
490
476
525
593
475
502
495
569
527
456
489
552
555
495
543
621
632
475
480
656
543
540
558
450
628
615
471
561
537
562
490
312
535
538
571
528
495
535
599
530
510
515
650
458
480
436
639
534
496
491
575
541
510
499
558
636
496
500
467
564
538
564
480
583
543
459
519
556
564
512
498
506
634
551
478
544
601
512
486
492
515
563
502
556
499
572
560
459
515
767
569
508
612
558
589
454
459
504
499
599
473
454
620
563
449
615
545
647
510
517
542
616
478
470
598
564
613
494
506
573
690
400
584
535
539
507
505
565
571
620
486
551
565
593
497
523
461
616
568
480
504
599
600
415
499
605
603
430
551
467
570
505
512
471
516
712
497
522
601
672
410
567
505
519
546
393
551
596
535
491
670
517
614
485
475
523
551
522
528
519
620
508
474
535
555
605
503
482
487
677
535
483
520
578
578
475
527
514
568
544
480
583
560
518
481
450
615
591
459
630
533
626
473
481
452
595
550
509
466
586
679
354
546
598
581
469
564
461
560
515
513
506
586
569
469
524
532
596
544
484
494
634
597
419
532
618
544
459
607
505
657
486
504
478
536
560
571
494
634
649
453
482
603
531
530
547
524
595
532
465
515
559
697
459
499
647
590
465
581
502
588
549
469
553
632
519
471
548
567
617
491
489
517
673
502
481
565
537
600
528
491
509
673
508
481
503
618
515
467
492
623
581
455
525
541
651
442
498
524
699
516
461
434
664
534
474
535
546
579
533
426
462
623
529
522
530
523
597
509
533
592
637
485
437
518
666
500
473
608
647
685
372
483
626
613
420
470
505
559
555
507
545
616
618
504
536
484
683
512
504
505
527
509
545
452
608
563
570
507
492
566
511
516
551
579
618
343
548
639
489
508
500
571
614
509
475
515
647
607
472
544
542
550
495
445
751
582
517
506
500
603
480
492
490
604
686
454
548
585
663
479
479
509
685
542
455
570
614
544
496
506
547
659
473
434
498
672
539
496
538
539
658
418
487
607
603
403
533
641
542
541
590
540
536
516
489
503
559
623
491
472
616
535
548
585
496
460
586
611
470
502
663
474
465
564
538
539
514
556
563
539
462
497
601
603
486
526
509
589
555
479
488
629
544
555
529
444
640
535
455
454
666
560
485
550
590
571
445
486
512
569
467
501
471
545
589
467
533
564
593
497
468
547
607
497
494
510
608
574
489
495
518
558
562
492
567
652
460
538
500
621
555
461
551
535
619
476
480
576
697
440
492
503
643
517
447
532
555
586
496
484
582
632
417
513
545
600
493
496
575
540
610
471
420
588
698
497
485
518
591
485
484
603
608
602
493
503
510
577
482
508
521
662
530
528
526
609
554
442
480
556
624
509
545
536
627
495
472
466
572
606
492
527
640
622
474
479
551
615
513
521
543
601
523
535
547
535
708
457
482
521
593
526
453
549
521
595
429
554
528
639
464
487
463
646
540
477
553
640
653
440
492
566
629
440
475
497
643
517
476
578
553
527
508
550
510
563
476
473
425
710
513
510
522
650
616
450
504
583
614
477
460
561
598
512
450
536
670
529
471
557
518
617
467
514
537
602
523
465
509
581
552
501
519
573
551
520
503
507
624
536
456
500
521
720
452
463
563
746
509
502
491
639
515
488
529
615
582
492
552
561
600
477
481
526
585
528
493
532
549
545
423
597
651
649
501
487
531
521
478
607
536
681
595
441
540
533
600
548
499
500
681
502
567
562
566
613
494
489
520
640
510
507
494
631
522
416
542
541
609
538
507
524
722
464
435
551
555
559
579
495
547
639
437
513
526
646
547
487
514
617
561
462
512
701
540
469
509
599
503
544
518
515
562
511
506
472
629
605
496
392
614
565
437
483
517
609
452
488
601
649
520
387
647
566
659
469
509
516
592
492
443
547
569
589
544
491
592
600
503
527
524
557
510
695
496
578
590
468
489
495
639
501
457
508
672
487
487
532
532
621
447
475
671
573
453
482
468
591
562
495
602
486
642
505
454
629
651
521
449
447
599
557
470
570
607
570
455
518
512
679
462
495
621
585
525
505
507
571
542
460
540
616
636
465
505
491
540
500
484
490
602
654
442
458
600
638
485
454
545
585
519
478
518
579
568
469
531
525
643
497
490
499
671
484
471
538
583
539
511
534
505
644
468
456
535
643
482
584
503
612
590
425
481
594
620
538
531
498
653
466
457
495
495
637
526
546
617
629
473
432
520
652
540
501
585
604
539
422
546
546
603
490
478
504
581
612
470
510
578
592
471
498
511
567
604
482
459
612
542
459
500
597
592
462
535
514
602
515
481
481
532
630
520
503
615
533
523
561
485
627
550
522
501
540
571
482
540
599
611
478
507
479
720
471
536
518
599
501
476
540
506
682
516
517
507
543
457
550
561
549
651
495
464
630
558
490
483
517
567
539
520
492
579
616
354
542
584
611
479
504
545
630
504
499
453
620
490
374
571
812
570
479
611
537
610
485
395
483
638
557
465
563
448
601
460
582
502
740
469
536
582
650
555
423
479
379
529
507
490
488
768
479
507
497
648
504
470
556
657
524
453
650
597
568
552
507
498
625
534
496
557
617
559
439
499
532
651
471
567
532
729
587
515
543
683
586
594
463
534
671
533
570
412
722
231
579
633
564
588
487
443
552
787
561
566
486
586
484
484
548
710
672
532
529
491
607
512
527
478
512
553
493
575
610
677
499
477
521
568
469
507
546
639
538
454
495
665
585
446
633
512
587
494
459
507
644
499
487
553
594
643
470
559
427
508
521
487
525
605
539
501
393
653
548
458
469
622
651
412
490
660
650
483
488
555
549
542
497
579
513
647
502
468
504
594
498
465
611
560
620
498
555
503
620
486
488
582
567
645
456
471
613
594
417
548
476
586
601
466
543
611
531
470
503
522
604
566
497
541
640
487
479
478
627
482
487
626
546
540
488
574
454
692
479
460
537
624
529
560
508
592
574
448
495
528
621
491
558
503
530
545
459
500
664
602
449
556
465
601
478
617
524
567
600
475
493
585
662
458
494
527
647
471
434
536
615
532
534
516
598
619
453
545
527
640
537
463
462
588
575
469
523
636
542
494
497
508
645
533
522
555
571
527
447
655
523
623
493
504
536
618
439
524
541
648
524
472
526
565
605
489
514
526
658
541
466
518
601
444
534
601
583
622
509
498
480
561
516
490
561
601
534
439
551
564
596
505
536
520
553
486
514
560
617
516
483
594
512
625
456
523
505
598
446
453
647
584
564
542
552
546
618
444
533
492
677
506
506
503
675
506
470
549
623
620
484
491
586
561
510
497
538
629
512
481
506
553
560
465
534
567
598
532
502
486
559
450
468
596
520
627
488
511
475
488
533
479
555
566
604
494
502
646
638
481
485
510
654
485
492
511
676
650
500
515
588
728
472
500
510
622
515
435
528
499
573
632
552
573
568
462
351
482
605
580
486
539
617
549
446
501
513
667
479
514
427
626
535
453
498
506
628
243
552
536
603
480
547
497
541
500
549
547
616
565
449
580
469
563
486
600
512
604
539
495
510
578
603
459
480
565
541
509
486
503
646
568
537
452
634
594
519
530
557
548
447
493
554
649
552
439
580
607
577
432
548
522
617
526
568
501
538
530
527
513
612
512
505
604
519
607
486
509
502
619
573
533
528
590
532
505
565
547
646
493
392
494
654
515
531
568
599
530
461
438
590
608
556
423
403
579
513
496
496
615
542
479
598
494
654
504
543
555
585
534
521
506
578
672
334
607
554
734
518
458
511
495
541
593
460
657
590
463
538
489
595
493
499
511
613
501
565
549
673
544
401
546
572
680
387
536
565
620
598
492
372
563
634
402
524
467
637
497
470
508
501
543
494
575
594
600
530
490
538
608
614
473
390
621
540
557
489
611
656
318
552
455
651
516
460
505
523
541
541
522
584
558
332
502
492
639
504
458
420
594
495
522
531
610
615
395
551
441
567
482
626
537
608
515
495
459
580
597
450
647
605
662
458
481
549
521
498
474
522
550
531
497
504
600
605
493
440
467
574
507
589
515
609
518
517
525
477
610
533
462
472
575
480
440
534
556
674
422
503
563
589
454
486
511
582
518
518
499
572
576
487
488
520
577
486
452
536
638
524
472
485
568
560
434
462
577
588
468
505
522
590
486
435
525
559
612
471
483
474
765
402
496
584
559
492
437
487
660
630
459
516
508
606
500
465
453
626
552
451
499
553
599
465
532
555
523
501
524
531
566
604
478
459
582
481
480
459
544
650
454
471
541
547
528
540
474
545
643
475
443
478
478
