553
511
459
527
556
498
425
476
508
616
474
484
504
509
489
442
534
467
534
479
465
543
575
601
404
613
586
498
506
493
492
500
398
533
533
594
579
504
618
555
486
484
514
707
439
471
523
451
700
487
452
450
549
483
540
450
547
592
467
479
491
579
472
469
573
527
505
474
580
599
533
415
537
338
598
438
512
484
550
603
472
583
516
563
446
564
479
626
486
516
357
608
499
453
515
548
597
425
507
382
660
443
542
557
517
527
509
474
531
580
420
528
398
608
438
503
495
538
521
507
534
514
577
495
456
505
639
445
560
547
451
503
462
540
591
530
338
522
503
630
521
554
486
602
542
434
471
556
483
432
519
574
586
503
489
509
569
485
472
587
546
577
479
430
528
660
425
498
479
618
542
392
488
580
547
465
480
495
597
473
499
494
582
510
484
512
527
595
463
526
495
611
482
509
483
609
539
420
550
527
549
531
483
633
603
494
493
499
562
514
499
514
557
557
449
507
511
602
497
507
467
585
549
462
496
639
599
536
515
513
578
464
418
579
570
557
544
426
567
553
498
492
497
610
481
497
498
559
575
464
447
582
660
408
527
536
569
449
477
516
609
592
468
502
542
564
454
501
502
585
491
525
501
548
511
499
481
589
594
458
515
503
612
480
492
520
565
510
439
487
572
573
469
495
500
645
490
493
503
577
503
458
505
577
597
451
494
501
600
469
480
505
584
502
444
486
566
578
466
515
481
618
488
455
510
570
498
451
491
595
523
500
531
493
598
482
514
509
555
486
459
523
551
598
469
485
463
568
499
489
489
562
560
448
512
529
548
472
471
509
628
495
509
506
612
511
455
498
559
583
459
494
558
566
514
546
494
605
540
470
493
528
560
467
495
475
572
485
473
502
555
517
479
478
527
588
460
496
495
592
509
522
518
555
504
434
481
558
565
473
480
550
592
514
512
519
579
485
477
478
588
569
479
479
518
581
527
492
499
617
532
464
552
603
550
485
507
458
573
456
493
539
549
498
497
504
523
565
472
486
484
631
510
487
546
614
516
459
486
537
566
475
498
505
583
488
482
477
569
476
459
493
557
572
480
497
492
586
527
485
527
576
520
479
486
538
569
471
493
494
628
486
508
516
566
517
482
496
541
586
472
485
482
561
599
447
572
599
525
543
456
520
591
485
482
452
586
526
477
496
584
540
469
522
538
549
468
498
484
580
520
499
504
582
514
467
493
518
603
465
495
497
566
506
483
499
561
551
458
503
560
564
484
498
471
580
525
478
517
574
544
462
512
536
566
464
487
499
571
509
492
527
567
513
476
492
548
602
463
488
507
578
501
482
525
590
514
470
524
532
535
481
494
492
573
503
471
508
572
504
480
480
534
573
453
504
497
561
507
483
533
567
514
451
517
551
551
464
520
477
557
518
475
512
565
525
483
508
542
570
473
476
472
578
519
463
503
611
482
496
539
517
596
475
487
481
563
513
468
515
578
531
480
496
538
557
486
487
480
515
511
471
526
577
535
473
504
536
566
468
511
477
596
499
471
520
547
527
486
511
515
582
488
492
490
583
510
482
481
551
560
460
521
541
571
483
487
500
579
494
491
503
592
553
461
508
542
557
466
486
481
590
508
483
505
569
546
466
499
522
595
483
500
494
571
500
500
507
558
562
480
505
517
599
484
474
480
598
518
494
510
567
532
455
497
505
606
480
491
501
573
501
493
524
570
558
450
505
529
595
472
493
489
559
535
477
491
567
544
463
481
534
616
475
483
505
580
498
484
510
578
533
475
493
513
582
482
497
487
594
513
467
499
567
554
471
504
524
594
482
502
496
562
522
498
516
552
562
525
482
507
601
506
483
556
553
517
473
508
558
564
466
503
520
601
476
482
502
608
488
499
523
538
554
455
500
528
591
472
491
492
595
522
462
506
562
538
469
499
505
600
482
489
520
567
503
458
499
555
546
461
513
533
588
471
491
488
556
490
461
561
552
551
513
501
487
605
491
500
504
592
563
455
491
525
593
459
504
511
614
478
460
563
545
516
513
485
543
553
477
494
489
601
492
485
502
538
524
488
492
573
542
503
489
473
602
495
502
504
586
538
472
540
523
586
462
503
508
560
499
489
505
600
499
483
512
540
559
464
491
524
597
449
468
550
634
515
482
527
562
539
444
488
497
618
484
507
507
602
491
474
506
550
548
489
500
490
574
491
500
499
587
555
452
512
566
549
456
503
480
571
486
498
485
586
503
482
493
568
590
461
500
492
587
497
469
502
593
534
468
497
574
575
492
483
521
616
468
475
545
582
519
490
480
467
595
497
447
494
630
485
470
486
578
571
460
512
615
592
431
462
502
570
496
575
523
495
503
568
420
600
603
506
480
504
542
492
491
524
625
525
479
477
547
531
528
493
526
562
517
520
501
541
553
462
505
515
645
458
470
490
579
485
488
513
572
507
486
541
528
570
480
490
491
595
500
493
500
571
509
486
537
562
564
483
472
497
587
496
484
534
550
509
470
500
525
556
469
491
492
569
513
527
482
557
542
473
495
535
613
484
455
448
639
413
585
394
632
523
453
456
547
667
466
486
487
604
551
486
477
584
536
541
527
598
584
460
470
558
577
537
538
518
592
500
338
529
414
542
500
508
487
699
502
426
534
555
506
381
525
545
614
480
461
517
555
526
483
494
577
508
479
578
584
675
467
496
502
591
562
492
562
593
550
321
490
531
492
443
530
614
627
509
408
545
470
534
316
553
368
718
350
503
515
579
606
461
507
570
530
473
505
549
569
461
494
488
589
526
473
501
570
514
468
486
539
598
476
491
495
578
496
470
504
600
499
461
521
563
572
473
484
502
583
499
498
535
595
531
494
518
495
687
457
428
518
589
481
474
500
557
500
460
531
533
549
472
492
500
579
508
477
504
589
530
457
509
559
580
472
492
494
582
490
473
515
596
525
433
510
564
572
482
471
516
559
500
481
505
585
527
484
498
532
586
468
487
502
590
498
488
512
566
522
468
501
526
594
494
486
502
560
509
485
501
594
526
451
467
468
594
475
486
506
590
563
482
460
601
565
446
495
547
654
489
514
509
577
502
475
498
585
529
469
489
506
578
471
506
518
567
507
456
506
571
553
469
501
513
589
476
489
513
599
508
473
507
578
551
459
513
494
607
465
487
524
597
498
482
508
577
543
455
500
521
587
473
485
514
593
506
466
514
549
587
459
526
530
592
472
495
501
538
462
490
432
619
598
467
525
493
574
473
479
506
577
490
453
465
537
542
468
497
503
616
460
490
476
599
484
495
523
586
614
445
506
495
627
477
492
520
599
508
482
507
557
572
462
498
501
615
468
476
514
569
517
473
512
564
600
453
490
500
618
465
462
513
548
508
460
528
561
578
462
488
530
600
467
493
507
576
511
477
504
593
561
447
520
536
590
479
493
504
578
493
472
511
580
563
445
510
504
618
473
501
530
580
505
462
532
567
557
444
492
504
605
478
505
523
580
504
466
512
537
575
451
463
512
593
498
491
510
594
509
471
522
549
557
457
480
504
627
504
479
507
604
493
430
504
542
555
465
500
525
558
494
469
500
606
513
463
515
537
579
452
485
518
595
499
481
500
600
498
466
509
556
565
462
493
506
584
482
492
514
602
494
476
508
547
580
464
499
505
587
511
483
506
595
532
457
499
542
592
480
483
485
586
501
468
530
573
508
466
501
547
553
468
494
491
598
508
527
500
518
489
390
438
593
579
468
455
508
575
498
471
503
584
531
446
507
569
582
452
497
493
587
481
478
528
598
539
481
457
583
566
459
515
499
600
522
486
515
586
527
471
507
551
560
461
497
481
575
507
431
505
485
553
444
451
578
514
515
461
547
579
510
536
521
597
508
489
502
521
641
482
569
504
629
495
480
556
589
619
435
559
502
588
464
472
493
566
538
485
524
526
535
457
466
534
596
459
482
477
549
538
502
506
555
531
410
484
531
657
477
493
395
646
508
432
572
494
545
383
533
511
613
465
448
515
578
533
459
526
638
552
498
456
509
654
440
543
483
623
537
464
485
576
516
470
497
525
599
420
510
477
618
496
464
498
583
545
467
494
552
557
503
486
567
590
506
473
501
548
640
474
536
554
593
458
484
460
578
501
457
514
532
541
493
470
565
598
497
468
475
575
506
469
500
565
548
436
488
526
593
457
493
494
592
528
480
521
632
540
465
441
532
596
460
466
471
601
524
448
490
546
555
486
475
557
605
485
468
502
575
469
469
505
550
529
456
493
509
623
468
512
512
627
485
475
511
527
545
458
499
507
620
467
503
519
653
501
468
503
572
565
461
500
498
610
453
463
500
553
479
454
495
598
564
459
489
508
613
473
478
517
582
499
482
503
601
533
443
480
517
621
461
472
578
572
538
462
510
558
566
461
472
523
607
509
464
499
585
475
457
504
542
590
419
492
502
602
467
465
525
559
519
435
520
516
556
462
488
523
580
481
510
518
582
477
449
486
529
523
450
487
503
589
466
486
499
593
568
449
570
492
618
454
491
507
649
479
559
515
590
531
438
527
625
572
458
499
493
561
479
479
494
617
502
450
491
525
577
448
493
490
595
471
484
503
599
495
455
507
531
580
472
479
499
611
478
528
495
623
497
460
493
545
594
463
486
551
579
497
487
501
650
514
462
500
525
591
440
489
531
650
524
458
516
553
528
465
508
548
581
469
480
492
533
510
452
496
561
521
507
503
534
594
469
505
493
596
493
475
510
576
541
469
506
507
596
470
467
469
569
485
472
535
572
502
474
543
501
602
465
487
497
634
505
554
458
583
545
451
557
529
672
460
484
495
586
500
469
516
590
539
450
488
547
551
477
475
477
557
507
458
516
589
571
441
499
539
590
471
481
463
583
505
479
503
580
512
474
502
532
590
470
484
490
599
497
447
491
588
553
465
505
513
583
449
481
501
597
565
478
481
573
539
452
487
499
581
455
476
501
542
510
479
535
596
570
465
504
518
599
467
483
506
639
506
478
518
586
563
466
512
537
579
481
427
526
594
503
461
491
586
531
453
492
498
661
458
470
459
646
562
467
387
664
700
368
526
502
599
504
458
509
611
540
469
511
541
546
475
511
531
585
483
485
510
587
517
495
483
558
567
400
542
456
600
481
487
512
635
505
457
526
545
575
482
488
488
624
508
457
526
575
503
456
507
574
565
464
498
510
606
491
500
506
601
490
472
492
549
549
457
495
508
591
459
472
521
572
498
473
516
525
609
482
392
510
686
469
340
568
677
455
487
606
558
611
443
457
538
758
447
521
556
562
499
439
462
610
545
464
506
463
612
496
482
505
556
524
459
507
549
588
539
482
503
629
474
477
503
563
581
445
551
534
554
466
552
492
599
469
471
482
596
539
444
471
557
616
412
543
502
647
476
517
490
570
511
432
497
582
541
413
502
477
556
527
396
523
650
500
447
504
596
551
449
503
474
651
494
425
458
652
556
444
464
745
542
400
480
442
658
524
452
519
598
545
460
512
522
602
465
527
477
567
495
486
520
569
576
474
504
531
589
468
520
437
570
575
465
534
522
494
494
475
479
604
462
512
439
554
499
492
603
607
524
459
545
514
623
562
500
509
575
500
464
467
583
508
422
494
535
630
512
477
502
574
519
408
499
619
518
489
500
533
536
498
481
460
594
523
472
480
547
560
479
564
508
602
431
461
489
539
525
471
501
530
536
449
512
508
588
511
477
453
602
485
472
503
564
486
457
510
505
655
490
510
484
611
499
452
526
569
562
472
475
505
662
470
479
520
584
480
477
480
639
537
465
503
542
567
475
488
498
541
495
483
507
529
538
476
505
485
586
511
486
479
649
483
509
493
529
508
519
479
496
559
486
458
503
557
531
474
525
566
634
468
486
480
619
382
451
632
525
478
535
508
530
547
440
496
516
590
477
483
498
542
561
465
509
529
551
462
577
502
614
493
489
489
552
509
479
486
574
580
413
516
532
558
476
485
517
611
497
457
515
564
556
445
497
524
603
465
490
516
600
501
460
508
567
543
470
492
511
603
475
480
507
613
495
453
527
551
561
430
479
487
572
452
489
531
584
492
461
504
549
567
462
485
522
571
467
505
504
559
518
497
487
547
514
444
503
509
585
480
512
513
608
490
477
516
533
553
464
528
492
638
481
480
492
549
504
469
536
574
620
459
508
510
551
501
487
533
539
525
464
520
540
587
411
505
540
584
476
442
510
628
501
473
521
560
564
463
502
527
566
501
500
510
605
524
489
496
594
576
474
504
502
579
470
479
510
582
501
472
497
529
564
455
513
498
598
483
476
484
538
540
486
519
541
631
433
437
467
571
542
486
504
513
510
456
551
557
631
463
517
496
561
527
500
509
592
545
460
500
534
586
472
498
503
583
508
517
528
562
542
460
504
548
553
479
479
501
627
507
461
509
579
538
462
479
549
621
449
487
504
580
490
476
492
573
541
458
506
533
591
475
490
469
568
505
488
507
617
511
448
480
544
578
469
481
482
598
526
481
482
623
553
436
505
544
603
465
478
502
607
509
478
516
572
498
462
499
520
580
471
468
489
577
483
475
528
603
543
460
499
502
604
489
489
516
570
505
480
499
570
556
470
547
495
641
455
514
499
560
501
465
488
565
550
479
504
498
596
517
451
549
562
508
467
507
550
565
431
569
500
720
511
484
494
565
454
470
484
558
568
477
571
457
698
464
486
500
605
483
479
483
580
555
455
500
523
573
458
486
522
599
500
483
518
524
552
416
475
494
609
453
507
545
619
464
431
492
552
586
469
511
512
602
471
486
492
617
495
481
518
537
580
449
508
529
577
479
481
499
622
495
466
552
535
550
465
523
559
636
497
499
520
507
600
461
569
548
586
435
487
536
587
500
555
506
606
500
500
508
512
592
484
499
376
521
488
464
482
585
523
450
466
575
609
420
502
502
650
492
478
502
666
527
447
540
557
691
473
455
496
607
356
590
469
565
484
466
482
539
677
452
483
438
565
508
421
587
526
504
442
543
535
523
461
493
468
561
498
499
522
558
519
461
497
533
505
473
485
496
508
492
397
484
554
489
585
504
680
612
479
531
497
567
512
481
454
625
536
482
512
530
620
514
476
454
606
669
371
558
659
578
461
499
536
555
452
506
489
531
514
476
490
558
536
494
478
515
562
456
452
476
609
482
481
506
585
489
521
500
547
535
461
556
408
602
523
458
515
634
537
468
462
515
626
472
543
444
529
482
506
502
691
501
557
443
560
642
496
412
484
542
535
484
496
547
483
501
532
515
614
484
478
473
555
520
475
513
567
551
479
492
521
598
491
481
456
600
529
473
497
591
568
456
492
514
602
469
461
482
661
534
509
501
550
574
447
494
536
603
473
488
505
653
483
467
503
567
612
462
502
517
596
462
482
550
567
511
477
489
566
591
310
493
506
585
462
538
476
591
571
447
570
583
601
363
476
505
600
444
501
514
600
499
439
492
594
559
469
496
514
615
472
495
544
577
512
470
509
563
590
401
541
523
559
474
494
483
566
500
455
517
558
606
457
533
485
603
448
487
527
598
502
472
508
557
603
463
443
507
574
476
518
492
555
499
512
491
578
564
455
589
492
611
467
478
503
583
500
420
514
572
573
447
459
495
617
474
481
507
627
504
474
524
600
563
455
494
509
607
472
491
542
583
506
473
508
575
559
462
492
536
602
485
481
500
566
516
432
510
507
565
505
495
482
605
474
460
488
576
538
495
510
545
549
468
569
489
622
469
494
498
574
519
417
502
555
556
457
457
500
604
497
486
497
579
516
467
513
548
576
461
502
501
593
491
485
511
586
524
462
507
530
627
452
453
502
671
416
553
494
695
502
443
505
552
581
465
489
503
600
495
511
501
631
514
482
501
600
523
463
471
477
623
489
464
534
613
529
462
498
536
580
451
361
510
574
510
486
514
617
512
459
505
540
606
459
379
542
559
464
463
576
608
571
467
493
509
554
446
507
494
617
519
443
606
620
611
431
472
525
505
441
442
490
598
427
475
472
573
499
474
477
550
566
481
460
488
510
511
500
494
579
541
480
513
548
591
457
474
486
611
493
494
510
568
538
466
513
616
643
376
480
425
544
588
433
531
544
536
364
486
621
615
332
486
571
530
483
477
523
626
583
474
492
533
613
465
475
494
599
517
462
511
567
539
453
507
544
593
470
494
462
593
488
477
508
621
474
472
517
490
603
476
469
490
594
534
461
500
566
576
364
501
529
596
472
476
509
574
529
460
495
588
579
445
510
521
602
460
540
505
607
541
466
739
548
546
466
514
575
553
480
426
524
745
502
278
534
574
543
424
480
494
602
471
482
501
589
503
472
493
558
581
467
559
518
607
500
508
523
586
498
460
497
525
447
419
482
515
634
450
506
552
597
498
488
502
595
603
489
486
470
606
471
580
567
595
515
493
532
512
546
457
501
515
627
479
477
503
611
500
450
519
583
575
445
516
497
564
474
475
508
577
543
482
518
493
551
525
502
541
683
472
476
501
567
507
490
534
485
687
448
560
480
642
480
486
506
612
624
459
495
534
561
380
470
684
598
671
494
490
613
513
446
512
550
574
473
503
549
611
491
469
534
591
514
470
515
548
574
455
495
491
630
447
456
520
614
496
453
484
551
591
418
491
492
594
506
483
493
622
494
449
503
630
463
456
514
489
562
481
403
493
710
496
494
531
541
550
434
461
471
466
444
507
579
534
476
537
506
504
552
445
509
496
594
509
500
484
652
694
473
451
481
563
511
478
483
564
492
326
392
582
516
391
491
513
622
478
531
530
551
481
521
487
603
561
461
497
510
576
469
501
543
576
520
479
502
589
554
463
506
527
605
488
446
522
581
617
465
526
547
499
477
530
553
599
487
477
487
568
510
499
492
605
518
459
503
539
578
481
483
471
600
510
476
487
584
571
455
520
536
578
454
469
503
485
511
380
507
503
579
465
512
559
585
480
479
480
555
506
479
501
574
550
465
511
532
599
474
489
484
595
490
425
486
609
532
472
505
532
620
473
499
468
631
502
494
500
547
546
478
504
533
586
472
490
467
542
502
482
511
563
536
476
494
567
616
474
487
420
564
508
506
509
587
584
456
469
482
509
495
467
497
488
514
365
516
516
649
390
489
486
517
516
499
509
581
516
455
521
584
591
483
506
526
596
469
470
540
616
484
453
565
546
554
444
517
516
614
444
475
523
591
526
490
556
625
583
415
506
556
566
452
496
561
568
498
447
483
560
553
474
495
475
746
461
491
602
618
500
436
491
531
567
479
511
498
550
496
541
562
608
500
454
457
504
575
517
508
508
580
454
499
495
649
491
493
510
551
546
443
485
491
624
465
496
510
601
513
461
495
545
618
485
433
508
593
459
475
558
579
476
478
539
549
571
481
480
484
593
468
441
663
609
562
478
485
497
543
430
530
490
626
527
466
498
571
527
443
492
556
517
533
516
517
614
512
475
496
547
503
467
529
570
516
499
534
441
570
385
454
437
556
495
500
477
528
577
455
466
492
641
476
489
528
564
497
448
540
562
559
455
555
495
592
464
500
481
529
505
416
555
604
550
476
483
506
597
493
504
538
551
496
459
510
576
571
474
498
505
526
497
485
512
576
516
464
499
550
602
455
514
514
592
498
496
507
570
521
476
508
532
583
476
520
490
609
494
486
514
576
480
480
528
511
602
448
496
499
551
491
485
508
599
525
461
499
528
568
480
498
495
599
517
469
500
555
520
484
500
558
598
465
487
485
572
507
493
505
569
544
464
512
547
560
487
457
490
622
485
504
523
563
527
473
485
540
565
505
497
473
573
541
507
489
573
533
445
499
522
556
548
489
501
593
507
488
497
567
535
486
464
533
601
477
680
490
573
501
484
472
552
586
463
516
551
562
458
464
497
577
508
482
527
545
555
473
520
512
512
475
488
576
514
521
571
477
555
450
444
515
480
574
472
458
520
578
515
489
525
582
531
456
501
530
585
485
503
498
586
500
479
536
575
542
462
518
538
582
488
495
484
554
534
488
487
637
549
476
450
575
687
460
518
522
564
468
459
517
576
567
481
491
502
525
486
510
530
599
510
468
471
556
516
481
508
520
562
472
462
504
616
498
526
530
558
584
441
492
496
589
477
491
500
587
505
495
487
584
566
463
513
495
594
513
487
512
547
485
456
453
600
548
498
514
500
575
440
484
551
595
529
484
508
552
524
441
567
498
583
496
530
500
567
503
443
540
556
545
498
491
514
610
470
486
492
580
498
492
507
550
575
479
515
495
669
500
495
488
602
505
383
476
532
574
385
519
493
636
435
482
534
547
488
470
514
565
568
451
497
491
618
486
484
515
594
511
469
500
550
575
463
509
495
603
484
490
517
585
502
476
491
558
542
474
509
508
596
481
477
513
595
496
475
520
555
564
476
479
539
590
487
495
534
607
517
464
528
493
570
447
506
509
573
493
513
511
578
527
459
511
559
580
455
500
520
580
451
496
519
569
527
465
508
542
558
476
509
495
622
449
475
537
566
524
458
509
568
550
471
487
497
591
497
469
499
541
518
466
522
561
596
458
516
519
640
497
452
492
607
534
478
545
541
603
471
495
478
560
486
494
545
654
513
421
496
578
591
548
432
532
627
492
566
468
640
435
574
511
529
473
484
501
546
580
518
501
501
562
540
453
527
563
627
455
518
497
528
531
459
519
534
596
460
538
606
640
424
493
536
606
553
497
589
551
485
470
504
507
648
482
527
507
549
501
499
508
499
561
507
472
567
563
481
460
486
622
477
486
509
459
545
510
445
534
600
418
554
491
569
479
481
564
547
522
463
541
561
582
481
457
422
659
526
471
490
613
572
444
479
524
581
459
445
477
634
501
519
549
572
433
476
669
503
543
513
454
512
532
486
523
546
589
538
470
516
534
562
451
502
503
536
515
530
471
654
547
503
484
477
592
483
486
491
609
513
466
476
586
550
478
533
503
571
496
516
481
584
493
451
519
546
539
481
495
591
479
456
604
405
587
521
471
490
470
561
496
521
575
609
493
465
471
653
418
478
450
598
556
395
494
461
617
500
457
412
649
534
427
561
546
527
469
504
483
671
460
414
507
646
466
496
567
505
592
480
478
536
635
444
494
500
569
493
462
470
533
566
450
559
503
550
552
499
490
615
532
491
507
575
576
435
529
694
482
634
439
528
525
511
470
500
560
528
469
527
528
614
493
452
601
551
507
448
542
594
552
475
501
505
608
435
479
580
552
501
487
498
473
565
449
503
499
618
491
478
495
553
496
519
483
535
614
452
493
488
616
478
499
482
581
507
498
548
554
573
441
516
509
593
482
499
517
533
526
459
514
559
621
460
476
506
643
461
492
528
594
479
465
517
532
560
464
585
479
583
515
486
462
593
495
475
500
530
588
481
502
527
629
487
486
533
638
487
500
516
532
558
483
488
531
608
486
434
539
593
513
494
448
552
582
438
505
462
566
527
548
505
627
512
453
501
485
547
456
514
506
580
464
493
519
605
505
488
487
581
560
469
480
491
593
499
474
471
584
539
455
482
555
574
471
480
514
596
479
490
512
598
511
436
511
575
555
471
496
487
569
527
489
524
592
532
441
477
541
617
470
499
509
565
493
498
503
585
498
462
517
534
595
467
504
496
587
507
502
541
584
525
452
504
533
586
469
503
509
552
536
490
451
630
579
442
502
551
573
430
459
529
566
475
536
500
578
500
463
496
515
593
471
503
503
582
525
514
513
567
491
447
530
537
591
460
477
515
524
509
510
505
560
539
493
488
537
597
452
491
472
577
517
475
466
587
546
425
511
518
604
468
476
504
572
519
472
499
571
536
464
505
560
576
462
485
486
565
518
479
530
546
503
480
537
522
601
479
500
495
536
505
485
531
558
510
514
562
510
586
493
487
466
564
521
503
516
575
539
479
491
519
617
472
517
565
640
461
500
508
573
543
498
511
484
569
459
525
495
599
497
493
530
572
537
475
599
517
547
482
485
498
588
505
494
463
560
580
473
474
537
612
493
487
505
589
511
468
505
583
557
462
495
516
621
511
497
541
596
501
467
496
572
572
453
497
594
567
478
472
467
547
563
495
511
598
558
482
522
542
591
500
536
619
526
500
491
504
555
564
463
512
522
615
460
497
490
567
505
474
510
565
582
431
495
545
593
478
465
496
643
484
466
516
572
544
431
502
528
608
484
486
505
595
509
480
506
573
556
471
499
515
610
485
492
509
596
499
451
475
584
541
478
501
518
600
474
485
531
527
541
509
461
564
544
459
530
473
653
434
492
569
605
516
463
543
548
573
422
466
520
636
481
456
489
587
497
475
518
571
562
446
491
504
587
513
484
447
588
534
436
513
597
593
450
475
499
540
490
446
502
558
500
474
492
569
589
537
491
527
600
474
485
501
581
477
480
625
440
585
373
471
464
641
476
408
506
607
420
460
641
573
595
452
482
508
623
475
536
581
607
412
390
460
567
668
474
502
541
572
545
317
462
582
576
480
484
541
540
396
421
503
667
462
499
506
583
514
400
509
651
509
450
530
481
580
497
471
525
600
499
434
620
527
607
456
492
504
600
485
493
469
554
548
471
497
559
501
458
523
482
676
491
465
520
559
467
445
643
591
683
454
606
482
575
489
475
532
624
506
464
505
544
558
484
498
504
556
471
457
491
688
575
432
492
507
569
467
475
517
545
506
487
494
600
504
489
515
512
561
475
479
481
557
481
586
568
580
551
462
477
518
547
469
519
508
561
504
457
515
581
527
471
517
546
543
463
493
519
564
502
492
488
543
436
494
535
514
734
427
492
502
555
513
496
503
615
529
460
520
594
533
624
471
484
573
498
461
484
593
539
460
492
526
593
490
485
494
597
508
473
468
493
541
541
457
511
534
491
438
486
574
466
524
394
511
479
556
449
605
569
612
483
553
424
471
544
444
608
492
488
444
536
534
454
521
469
627
570
455
500
590
554
424
496
466
595
505
433
431
570
519
457
521
600
562
480
567
490
603
478
490
483
591
503
488
514
572
533
489
481
593
601
480
466
474
597
550
490
512
555
577
465
494
517
609
477
483
488
561
515
473
495
539
556
464
483
590
574
473
474
516
607
518
499
488
538
546
418
501
571
601
491
534
501
682
463
503
519
572
552
448
553
474
625
563
450
557
591
494
471
522
569
559
474
478
492
602
490
453
527
582
460
476
402
582
608
470
534
536
633
447
481
509
571
511
491
512
560
557
465
500
543
612
545
507
453
595
390
434
530
550
629
489
507
447
588
479
484
575
593
520
489
511
569
537
512
469
516
598
480
486
494
589
490
453
500
542
583
490
521
510
634
475
493
531
588
500
475
510
538
620
483
482
531
567
498
473
478
543
501
506
536
562
584
465
516
479
577
475
513
528
571
501
483
502
559
573
463
452
516
584
521
501
544
596
538
458
524
622
517
450
511
490
603
493
479
496
593
502
465
499
570
554
444
512
522
561
482
479
516
527
516
472
497
516
556
453
500
501
604
472
482
520
584
535
472
517
532
591
442
549
512
581
502
473
517
576
530
481
492
557
574
463
510
522
579
633
460
578
561
583
448
504
529
609
453
491
475
542
514
459
514
610
553
289
433
473
593
474
487
474
594
643
515
542
674
438
473
441
528
509
481
493
394
620
600
463
505
578
527
438
496
502
592
428
473
493
530
679
471
635
576
578
465
470
550
556
499
503
503
615
519
464
517
607
534
505
518
490
578
449
486
495
547
497
497
522
598
538
475
498
532
563
490
503
494
642
506
474
514
606
465
491
462
592
599
472
506
505
563
500
488
497
584
478
470
455
532
583
465
545
500
660
519
438
510
574
534
469
521
511
605
470
476
484
605
496
487
516
540
544
391
519
532
579
469
457
489
601
504
465
523
618
538
472
486
546
607
465
490
499
597
482
480
515
582
578
475
546
540
593
471
480
504
588
502
470
518
580
550
448
505
533
566
474
499
507
583
494
500
511
574
552
475
723
435
618
481
475
493
582
735
476
625
534
557
449
497
533
596
477
496
499
595
485
470
506
583
553
454
512
524
604
475
486
490
597
506
471
510
589
553
453
489
528
580
479
489
509
588
500
463
501
583
550
468
493
507
605
469
437
524
582
497
483
498
488
537
550
482
501
561
465
476
532
609
505
482
533
527
553
463
501
514
608
480
487
529
593
499
460
504
674
540
593
466
495
580
458
482
526
599
507
467
496
572
558
506
521
508
616
471
475
523
569
506
469
512
579
585
454
514
511
585
476
486
533
590
515
469
514
567
565
463
490
506
619
482
474
503
601
510
466
467
503
517
470
440
504
587
467
480
528
592
514
478
525
564
562
459
486
499
611
474
424
542
601
510
501
527
555
505
461
626
472
697
540
536
660
598
501
468
508
530
533
473
493
505
593
471
488
504
590
524
450
372
520
473
416
499
533
614
487
494
522
592
520
474
527
548
589
519
510
496
592
488
483
514
581
521
475
507
547
583
458
501
494
554
533
475
499
572
501
540
515
548
518
438
494
500
628
473
517
523
615
510
465
477
529
571
420
528
541
546
522
471
502
572
503
450
504
555
537
469
490
473
594
559
478
517
561
523
466
511
552
589
459
526
473
620
499
494
508
569
514
443
502
543
647
443
511
492
583
512
485
528
626
599
492
505
556
587
458
540
499
584
528
499
527
540
613
463
517
559
552
497
479
492
571
507
491
524
636
581
465
503
548
595
473
476
481
606
500
476
524
581
516
456
503
553
581
469
477
486
621
491
661
519
595
496
417
443
497
559
482
438
514
577
493
458
527
586
735
414
518
539
591
461
481
501
718
378
474
454
551
528
453
512
526
626
450
540
491
615
499
503
553
528
723
273
580
469
555
555
493
485
610
489
456
461
615
579
478
515
520
584
463
485
501
604
503
473
503
583
579
468
499
524
603
490
481
515
563
506
481
508
640
556
451
512
535
583
463
507
502
598
505
477
504
592
542
386
544
525
626
478
494
523
586
500
469
503
577
543
457
479
523
605
474
490
512
620
495
467
512
580
555
465
505
523
596
469
489
522
602
503
405
509
566
583
456
508
501
605
466
491
538
608
485
479
508
561
572
445
502
510
608
479
478
517
592
494
474
527
655
567
459
527
467
647
477
601
505
616
495
278
520
520
701
396
512
360
582
490
452
489
572
447
412
441
448
522
413
604
492
723
460
560
410
675
332
457
486
456
531
424
519
487
605
467
482
528
614
509
474
511
556
577
452
495
510
602
480
470
528
558
512
461
503
573
581
464
491
520
606
470
487
513
575
506
470
504
562
571
461
509
493
595
482
486
501
584
513
466
507
560
574
454
492
503
605
478
484
512
601
520
466
504
555
579
461
490
494
603
475
479
514
579
511
477
499
562
562
463
494
499
611
486
481
516
594
522
463
505
556
584
460
488
507
591
493
475
519
595
518
467
517
573
567
424
494
503
569
496
483
514
630
501
503
467
551
634
475
482
513
581
519
481
504
552
509
465
513
538
555
462
488
507
576
494
490
518
582
523
423
522
543
592
467
488
502
597
500
484
513
611
517
456
512
546
590
468
489
495
578
502
470
509
588
516
463
504
547
587
461
483
495
601
512
468
508
588
531
467
503
558
618
466
510
493
602
506
484
518
575
534
468
500
534
592
467
485
505
566
499
475
509
594
521
460
503
539
580
459
473
681
563
697
451
516
575
540
457
499
537
596
473
488
494
553
509
472
515
558
549
461
504
527
597
470
490
494
590
499
478
508
580
543
466
503
536
584
462
495
491
598
501
479
508
567
545
464
502
531
584
476
485
497
541
519
480
521
587
557
454
511
558
610
471
502
503
589
489
462
531
568
557
456
505
521
610
472
476
515
593
527
466
510
571
554
466
517
539
603
450
494
475
601
453
480
509
572
562
449
512
512
603
475
479
529
593
494
468
508
571
568
457
499
517
617
460
488
523
570
506
415
516
573
599
458
505
532
595
473
504
530
584
492
468
515
560
567
420
498
501
601
478
482
535
593
517
468
514
570
561
452
508
509
615
466
496
523
601
501
462
510
566
567
453
497
505
608
471
475
518
602
502
465
500
576
563
457
495
507
609
471
486
522
594
515
459
501
571
554
469
526
493
612
470
489
521
573
520
466
520
562
567
451
496
491
614
471
487
505
615
493
465
507
561
573
457
494
509
610
471
476
472
587
511
464
531
566
607
458
496
510
603
473
490
511
597
517
458
497
559
564
423
489
506
598
477
487
502
608
506
458
508
566
558
468
486
504
588
477
484
459
578
444
451
642
536
463
533
443
663
529
515
450
531
603
508
464
506
542
574
463
490
512
572
503
485
510
582
572
441
503
547
617
429
479
513
589
492
501
533
528
532
395
503
532
667
460
453
557
585
493
473
502
529
528
391
506
539
617
468
497
507
585
496
485
483
620
478
453
501
527
589
482
487
513
593
482
476
501
564
561
416
469
567
564
417
489
520
581
529
495
481
555
558
397
530
538
533
491
484
492
613
508
500
532
593
565
483
494
507
640
479
498
488
590
493
501
502
551
559
489
499
532
571
479
487
486
612
495
475
524
572
545
471
501
538
577
472
503
491
569
523
477
545
592
590
472
510
526
571
472
487
504
587
491
475
499
575
542
467
525
536
559
468
482
520
606
491
496
503
543
550
421
510
505
581
473
492
506
579
506
469
507
574
556
453
528
502
550
438
494
523
585
487
479
463
560
488
473
510
525
614
482
479
508
568
463
477
479
604
524
479
457
521
590
462
492
516
589
502
460
511
569
566
455
499
524
607
468
480
519
592
495
465
518
570
598
459
496
515
609
477
505
511
723
488
469
491
556
488
448
488
492
603
486
492
528
600
494
464
487
545
585
480
502
508
602
474
486
508
585
500
479
501
570
553
459
512
479
612
481
478
528
603
506
479
502
549
595
476
491
515
606
446
483
514
588
509
476
509
556
567
454
500
520
603
471
485
523
575
521
464
505
556
568
443
499
498
608
478
483
533
590
509
465
511
553
574
468
497
510
599
481
476
513
610
510
477
511
542
586
466
486
508
593
484
475
508
579
505
490
501
544
597
452
493
495
610
488
473
528
611
508
465
501
542
571
467
480
506
609
474
485
507
596
512
474
480
536
581
473
510
521
594
484
501
527
581
495
469
476
533
581
476
502
490
589
475
472
502
594
544
470
515
616
546
573
405
507
471
484
446
539
605
503
465
506
509
581
474
472
491
592
504
477
497
557
533
459
509
545
599
305
516
433
532
590
566
484
611
537
441
499
538
672
487
492
492
577
496
487
524
585
568
435
507
574
577
463
502
506
580
498
414
535
613
495
456
509
555
561
380
409
513
561
544
482
394
545
526
438
504
526
622
512
497
493
558
499
480
516
584
549
459
502
536
610
471
486
482
571
517
500
512
586
547
460
502
517
601
488
507
501
575
506
482
500
572
547
480
512
522
568
472
494
498
597
496
480
518
568
556
456
492
514
610
480
493
519
569
508
470
493
568
614
467
505
548
592
486
493
474
589
501
487
509
569
527
454
555
529
606
476
541
478
537
519
500
462
556
683
299
525
501
570
412
479
499
620
490
470
464
545
595
474
511
525
600
464
492
492
600
508
459
504
569
565
448
504
520
684
465
485
518
582
498
460
521
573
573
456
478
517
629
464
484
531
596
493
467
497
586
556
455
533
488
645
482
479
517
607
509
473
508
560
574
458
485
505
622
461
500
526
579
500
491
507
561
587
455
495
494
665
467
482
508
587
509
467
507
564
579
462
510
504
585
475
478
517
597
507
458
509
558
570
456
490
500
619
483
492
526
596
507
457
496
542
591
464
509
505
587
471
483
509
589
519
463
521
545
542
468
505
558
594
521
488
515
573
450
470
533
537
580
488
499
459
576
434
496
506
589
520
441
520
556
560
438
509
435
603
494
498
527
565
544
459
511
567
559
450
500
449
592
472
470
513
613
529
489
516
554
586
442
500
494
593
527
474
516
580
531
456
495
547
578
445
492
497
589
508
482
515
562
530
465
505
568
587
452
486
478
573
510
479
511
589
533
468
505
536
597
469
491
499
615
501
468
508
564
533
479
503
554
577
474
491
482
591
513
472
516
575
549
470
498
543
589
467
486
493
578
504
479
519
567
541
449
497
550
565
477
490
473
592
498
491
508
568
573
462
491
554
547
491
527
489
609
476
510
503
547
546
458
524
525
570
465
479
506
612
498
464
517
575
543
437
545
549
575
473
482
493
580
498
480
508
571
547
450
519
507
590
486
482
537
594
528
468
493
576
533
444
513
525
587
465
490
517
593
506
483
502
548
554
473
497
486
612
477
493
520
562
496
462
505
614
555
426
538
557
551
477
510
525
576
500
466
488
606
577
459
482
520
616
484
480
533
622
489
470
492
642
598
485
524
520
613
475
474
543
623
521
454
508
594
534
459
505
498
623
464
495
507
592
507
466
497
564
558
464
512
503
647
478
487
499
629
513
453
527
612
555
466
501
496
628
448
492
477
638
515
480
513
598
528
446
549
488
627
534
484
501
564
524
475
490
544
620
446
503
491
584
486
482
510
603
521
435
553
587
514
486
519
478
585
489
453
524
616
488
471
456
558
717
430
501
484
548
526
620
500
775
583
481
370
473
447
328
491
504
526
466
476
514
570
428
438
483
564
658
501
442
508
628
462
569
605
574
534
453
483
537
589
470
482
506
576
497
473
489
629
517
474
510
533
598
441
506
609
555
493
560
525
449
540
340
490
537
573
539
468
499
560
506
489
491
590
542
482
495
508
575
476
495
512
553
524
486
502
589
532
429
526
553
492
444
493
523
558
532
485
550
559
578
492
481
581
599
460
464
477
585
498
482
529
638
516
451
507
523
563
482
470
479
583
506
473
536
566
549
501
498
529
582
472
477
482
584
503
488
524
569
549
473
510
536
570
471
485
482
675
489
490
505
543
540
462
495
534
608
465
494
473
567
510
487
520
559
608
465
503
518
584
474
495
480
577
505
490
501
554
546
452
512
538
604
498
491
480
579
516
491
484
576
600
484
491
525
587
475
475
486
567
515
488
504
575
546
464
515
503
601
480
483
499
583
492
481
509
564
586
468
492
512
599
479
489
524
604
489
478
515
560
558
483
514
505
600
470
512
500
590
503
485
489
550
542
454
558
505
623
471
493
497
565
516
461
505
570
629
437
502
507
606
476
490
513
620
503
470
509
557
562
463
501
513
613
467
481
517
592
491
458
511
563
571
457
497
514
593
471
507
528
589
499
477
533
548
584
464
502
505
598
478
490
523
595
515
464
500
564
574
466
478
510
621
472
483
528
576
491
470
499
564
566
458
497
514
598
465
480
512
599
515
463
509
591
606
448
505
502
601
462
465
515
579
528
474
498
540
611
460
519
483
618
473
461
538
600
514
473
520
546
556
456
495
489
606
488
483
530
565
532
456
509
540
574
469
482
502
567
471
484
515
572
524
471
508
553
571
466
493
490
575
504
491
509
576
509
498
545
534
600
454
495
485
586
497
490
500
577
516
463
512
547
577
462
487
467
599
534
463
511
608
511
453
518
563
571
489
452
499
531
547
497
505
532
532
420
506
560
624
473
482
502
581
502
489
502
615
530
461
507
578
578
469
476
485
572
498
485
499
563
540
469
498
560
596
458
488
499
594
508
487
513
585
525
458
477
539
555
479
484
487
589
513
459
527
607
531
471
498
544
572
477
500
518
570
506
494
496
572
534
467
508
521
600
464
482
505
547
526
474
512
568
540
475
486
544
582
478
491
509
570
502
461
507
577
576
464
515
518
602
470
480
478
619
532
449
501
579
586
418
498
541
598
473
488
499
592
502
469
501
586
562
472
516
560
582
471
494
530
562
529
487
517
560
575
468
489
525
594
469
497
507
592
510
470
503
567
563
466
514
510
599
481
509
526
601
508
470
501
555
557
464
502
509
632
482
480
522
590
514
460
506
559
568
443
527
511
595
473
489
529
577
497
475
510
557
542
451
516
506
593
479
499
510
604
509
464
522
554
559
435
507
535
601
490
490
529
577
506
462
492
567
572
476
499
492
613
494
483
532
598
496
466
495
560
560
453
508
519
587
466
489
536
569
503
467
499
550
567
442
494
506
605
482
487
496
592
514
455
508
540
546
407
507
484
604
480
508
520
589
501
483
507
553
567
471
494
504
616
471
472
503
574
510
464
499
537
570
470
482
500
568
476
498
509
561
525
474
517
515
568
448
502
506
576
472
491
531
561
493
468
509
492
574
417
546
511
607
495
486
495
593
528
468
534
545
579
453
502
491
611
489
498
511
588
517
469
509
537
575
475
485
505
581
492
473
512
578
523
474
507
527
564
462
489
500
594
504
489
511
580
526
475
497
547
580
461
484
513
589
507
492
508
564
535
454
499
557
574
458
487
494
593
495
477
510
624
517
452
502
545
581
453
485
495
601
500
455
502
583
508
466
512
555
586
467
503
501
569
507
486
513
574
516
442
514
564
577
466
510
492
569
525
487
502
556
505
469
542
525
580
490
481
485
564
511
473
523
573
516
482
525
522
589
477
492
490
582
557
471
522
583
540
478
496
516
594
469
485
492
568
512
483
507
565
548
488
490
531
589
471
509
474
588
493
467
520
559
540
460
508
538
576
470
486
506
571
491
479
512
558
545
471
506
541
598
475
503
481
569
489
459
506
548
538
459
499
556
595
467
496
489
568
494
476
507
571
552
450
510
549
588
479
497
493
606
506
474
498
574
523
452
530
503
538
505
484
483
606
516
489
511
566
550
461
505
524
573
482
491
505
583
502
466
527
566
553
456
508
507
591
461
496
496
581
494
483
534
581
579
466
491
505
594
461
488
531
599
496
468
514
562
559
458
502
524
611
472
496
514
581
505
477
496
567
555
473
524
510
613
482
480
515
589
506
466
511
567
565
462
495
522
603
450
537
510
526
549
470
468
523
572
460
506
498
611
475
478
531
603
532
468
511
577
568
448
500
508
632
470
478
531
590
507
475
496
568
626
453
500
482
616
537
518
524
595
498
348
473
521
557
421
497
512
590
455
489
484
614
492
483
527
578
564
464
511
507
605
475
482
500
615
495
473
509
574
569
456
495
517
605
477
491
519
601
500
469
509
555
574
471
495
529
624
471
483
511
584
505
471
532
529
576
456
500
508
607
470
492
528
596
503
467
516
572
561
452
506
503
607
471
489
521
587
512
477
504
570
563
452
488
513
601
477
473
534
590
509
461
532
548
570
444
502
498
596
476
484
515
592
498
446
513
570
566
455
498
500
612
468
481
514
594
500
469
525
577
563
463
505
482
590
452
479
515
572
525
389
533
591
446
466
462
542
578
456
422
506
562
525
456
523
561
556
455
501
502
579
507
486
508
582
532
472
486
536
570
475
496
502
580
468
497
546
588
539
477
506
524
540
456
494
510
584
488
494
516
596
567
462
500
553
592
457
483
503
606
498
461
513
569
503
494
476
569
584
479
495
501
586
531
490
558
581
533
464
477
531
552
454
491
497
596
506
474
520
592
514
468
489
528
595
454
491
499
599
516
493
472
570
526
480
484
552
555
459
444
494
575
494
487
516
584
524
466
506
535
595
473
487
496
566
530
479
516
598
538
478
486
522
582
465
498
493
599
508
479
515
599
532
437
514
549
562
488
494
498
581
496
486
529
584
491
470
500
514
581
466
490
489
546
498
487
520
557
529
451
503
552
593
455
475
482
587
520
494
542
569
514
464
501
551
567
470
488
467
579
502
477
520
562
533
469
527
533
593
471
501
505
628
490
472
514
572
526
445
521
540
574
507
504
500
573
495
476
483
591
593
449
526
531
564
480
472
500
597
500
454
490
589
550
458
542
527
595
477
502
494
594
494
479
512
555
540
463
533
479
598
491
486
454
576
507
487
523
584
544
462
488
548
609
458
487
498
575
499
457
518
597
531
458
504
536
580
466
507
491
596
498
477
510
568
537
467
504
530
621
459
495
512
581
494
463
506
581
541
464
523
548
579
489
495
492
590
506
461
516
586
538
478
512
532
600
470
501
490
562
507
484
514
571
545
447
491
513
578
476
488
572
509
519
508
531
531
582
472
482
485
562
494
456
497
612
493
482
514
564
531
446
502
547
666
469
519
465
603
514
451
580
609
575
449
513
496
579
410
545
480
612
466
479
466
573
557
441
525
562
558
482
503
529
570
501
448
575
543
587
465
500
517
611
475
494
502
579
505
480
491
567
557
481
491
553
543
459
544
567
598
500
465
504
494
551
500
509
540
636
467
452
456
544
459
467
520
612
591
467
518
540
593
472
505
515
569
505
463
507
584
546
464
505
463
625
475
497
511
590
484
479
526
546
560
452
485
525
616
460
481
497
610
504
471
532
582
572
452
495
529
608
470
491
514
594
506
472
525
558
545
466
497
519
584
461
506
499
608
465
485
517
693
500
455
485
505
488
477
373
533
600
476
461
506
639
563
770
524
825
627
477
465
466
535
455
437
546
613
606
475
500
514
601
463
511
568
597
508
482
523
549
538
435
495
516
597
466
478
522
611
511
472
512
580
542
449
508
477
595
489
497
517
603
509
472
488
488
