CH1
575
333
434
563
686
319
370
549
755
391
326
495
757
535
339
448
582
685
304
405
580
707
428
325
498
729
557
346
447
596
690
305
423
545
711
434
390
486
727
606
309
406
596
698
347
385
558
729
390
328
522
709
572
304
450
604
674
322
339
571
725
419
350
541
726
590
300
448
577
706
334
383
538
696
443
337
474
721
551
298
399
635
687
288
422
529
646
463
358
495
753
546
313
457
578
653
382
359
528
684
449
319
522
736
516
319
485
632
630
320
401
501
665
459
349
521
725
530
327
440
608
673
308
368
462
720
462
330
521
725
502
293
416
694
658
320
360
568
681
429
254
586
724
523
333
453
658
631
363
359
526
669
455
310
531
725
512
318
465
663
630
436
384
473
712
436
311
513
724
546
290
463
685
614
326
400
481
683
451
328
472
754
497
313
409
731
643
310
386
529
715
422
296
604
733
488
313
476
685
610
319
384
512
685
448
368
536
681
546
348
431
683
593
379
388
505
683
426
353
521
732
462
334
460
685
616
305
381
541
685
340
411
551
720
497
306
460
715
601
324
434
553
677
358
340
565
715
479
306
473
677
591
290
491
526
689
366
350
539
730
470
309
475
685
618
340
401
536
720
373
343
550
750
399
385
431
696
605
360
417
564
689
343
346
570
759
461
299
489
674
637
311
439
574
694
346
352
548
728
434
329
476
686
619
330
429
538
763
318
360
514
775
482
304
487
683
617
349
415
555
727
333
367
548
742
395
292
519
669
611
360
471
538
753
307
395
551
717
441
315
492
719
596
341
439
539
742
336
378
539
745
440
321
485
684
605
369
418
570
735
322
371
554
714
430
314
501
691
629
340
424
574
720
323
385
555
718
417
305
486
679
629
327
441
522
794
312
374
553
728
415
317
529
685
602
346
435
541
720
362
372
538
709
393
337
506
664
649
321
418
536
728
333
390
554
718
421
316
515
722
586
327
447
547
717
337
385
551
766
395
361
511
735
572
328
439
536
736
323
371
593
685
428
326
504
707
623
322
435
575
715
340
358
543
688
506
294
485
761
540
340
420
601
712
335
375
547
704
398
333
537
736
560
278
432
660
669
340
398
535
725
417
338
463
720
596
320
441
601
682
309
384
586
699
421
357
501
737
528
317
462
605
693
294
391
550
676
397
402
498
752
546
332
427
567
714
310
390
549
712
394
278
567
740
547
317
471
620
633
322
401
545
687
409
305
507
722
548
340
450
605
690
292
389
500
701
422
331
505
739
554
316
453
632
671
298
335
602
669
396
419
509
736
531
301
479
646
648
330
352
553
680
413
347
543
733
512
310
469
630
693
315
340
588
656
433
310
549
685
529
293
457
633
703
334
339
519
665
401
365
515
691
534
313
458
633
647
359
325
517
683
440
345
538
733
500
285
418
754
639
311
384
492
686
425
315
558
741
524
308
442
652
729
296
392
534
667
406
353
541
735
462
305
503
646
647
318
402
540
671
425
365
548
733
474
313
457
699
639
312
354
485
748
450
354
522
773
485
299
440
685
638
325
391
536
678
412
370
508
747
477
288
473
685
590
380
378
545
684
444
342
511
743
483
298
454
689
640
305
423
527
687
446
318
542
750
527
282
447
712
589
323
419
556
687
426
331
496
766
469
298
464
716
641
321
414
551
732
378
371
527
753
474
272
470
666
669
316
398
578
733
350
342
555
733
488
304
466
667
638
351
357
592
714
332
351
570
711
432
320
517
682
603
372
400
557
688
323
404
542
731
438
272
490
674
613
345
426
581
722
344
370
564
719
441
306
481
721
612
369
420
552
764
329
375
554
738
425
310
467
683
637
332
406
565
733
329
358
564
731
421
332
518
684
606
362
386
540
738
320
394
532
766
422
308
509
684
612
362
417
532
747
335
374
561
726
413
330
507
685
599
359
420
544
758
339
344
577
703
460
311
489
724
594
332
428
550
752
328
382
534
732
423
319
507
687
624
343
449
539
739
336
372
542
709
422
322
511
727
535
425
474
550
715
315
419
548
684
467
334
506
687
617
355
427
563
744
325
376
523
738
407
318
513
687
638
323
425
579
726
329
389
533
690
435
335
483
735
585
314
441
569
687
320
405
555
714
404
334
542
749
581
316
435
580
692
309
397
571
729
412
287
563
743
573
339
406
611
688
309
394
538
722
468
299
465
746
564
307
446
589
670
364
325
600
677
402
350
510
742
572
274
451
612
685
314
402
524
748
401
320
536
724
543
299
438
623
669
326
387
535
685
457
322
507
760
547
297
480
580
692
310
374
560
695
424
331
514
740
532
312
470
626
659
331
401
512
689
391
317
553
721
470
421
433
642
674
323
371
487
715
414
337
540
745
499
298
469
624
723
377
367
481
684
492
330
573
733
534
286
493
595
681
292
385
508
678
433
298
538
756
482
272
458
671
657
298
405
523
659
448
311
556
743
468
334
457
681
617
312
389
512
687
423
316
520
740
488
322
418
673
645
315
381
498
675
403
356
525
698
562
304
466
680
624
281
405
525
641
414
364
559
724
471
339
464
684
604
330
367
535
662
454
318
543
752
508
304
456
709
624
304
421
530
683
432
364
538
726
478
345
446
687
615
359
366
494
741
394
383
520
744
504
263
507
685
624
325
378
555
676
411
355
552
743
478
338
445
671
631
343
365
535
686
403
365
530
736
478
286
466
681
615
328
387
570
678
380
382
534
730
482
290
473
690
582
355
395
581
654
394
310
580
690
484
338
452
686
629
299
435
552
687
393
340
523
740
486
291
476
673
606
375
405
583
684
345
307
589
719
463
311
487
686
581
317
412
605
685
328
361
537
725
457
302
494
691
623
340
437
492
763
340
372
547
735
450
285
473
679
625
364
412
551
730
342
362
534
725
473
275
468
692
616
412
357
615
719
297
410
561
745
448
293
503
686
588
331
389
627
721
338
367
547
729
431
250
514
657
607
402
406
587
723
300
360
523
719
489
317
478
652
633
358
433
542
762
286
401
541
745
410
338
485
713
580
340
477
610
725
327
378
510
769
430
278
490
763
581
364
439
552
740
313
400
533
724
437
334
499
686
596
349
420
527
808
306
381
533
767
402
301
513
681
598
379
407
580
739
354
374
561
720
412
311
477
729
568
350
414
558
696
348
391
574
737
440
303
510
736
591
351
442
573
716
254
411
525
761
440
315
444
685
605
422
427
587
730
255
406
521
680
445
313
503
686
594
291
481
554
745
337
353
581
711
407
342
512
685
597
360
435
522
750
302
399
525
739
419
306
498
707
603
327
388
599
730
328
391
551
719
419
294
498
748
553
332
466
568
716
282
438
473
754
430
317
547
734
565
300
482
577
690
326
392
532
704
394
350
537
722
559
317
433
604
692
348
387
555
722
403
319
519
745
583
313
435
589
677
287
447
549
716
418
333
507
704
553
318
440
622
683
276
389
544
738
420
326
535
732
543
314
463
570
747
312
404
532
712
423
275
535
728
655
298
489
619
647
343
379
535
712
425
325
509
750
561
303
464
580
688
313
417
539
696
448
330
473
770
548
309
446
608
660
328
374
545
687
396
342
542
722
596
284
433
679
686
335
366
526
685
403
349
503
787
520
295
430
619
685
315
363
517
743
444
287
501
795
501
300
466
599
685
342
342
523
686
380
357
521
712
500
315
456
643
631
346
397
499
684
451
296
543
714
520
307
462
683
616
357
369
490
724
390
343
520
752
539
297
429
617
668
295
394
513
685
388
427
513
698
571
286
410
653
664
353
321
562
673
390
337
480
748
501
332
451
639
634
315
421
511
717
387
364
567
702
499
332
474
662
624
330
396
513
687
379
389
507
716
512
299
446
662
641
368
375
509
752
408
338
503
751
476
300
423
726
637
328
368
566
680
418
366
556
686
547
257
465
661
651
334
416
475
677
470
316
491
758
480
310
471
677
634
301
408
487
686
431
328
578
719
437
332
459
675
619
348
365
516
684
419
359
536
744
450
324
441
687
643
348
385
509
707
420
378
539
746
493
321
424
686
621
333
388
525
668
426
342
557
742
487
305
484
675
569
358
434
532
680
373
365
476
760
477
259
492
684
605
315
412
513
687
402
328
543
765
420
304
481
683
600
322
401
553
686
370
352
563
738
471
304
443
715
623
320
407
572
685
419
336
523
764
429
345
465
675
625
349
396
529
722
358
355
533
744
461
294
458
727
612
327
442
554
685
351
377
543
735
480
320
465
665
623
374
388
557
695
348
365
521
753
481
313
460
685
632
327
381
571
667
378
360
503
759
465
334
468
680
614
346
427
558
689
338
358
557
737
466
314
465
707
598
355
416
559
714
342
374
550
731
466
308
466
670
619
351
416
558
738
344
356
553
737
446
308
480
700
603
354
438
560
714
343
368
535
723
457
323
486
685
605
361
444
559
738
354
349
577
722
463
300
498
674
587
394
410
578
738
335
422
537
699
463
320
520
635
642
351
390
559
748
372
326
551
751
425
299
519
682
614
362
396
567
752
324
362
545
738
399
335
478
689
586
347
482
547
739
325
389
557
732
394
305
510
703
613
344
427
540
751
303
417
542
731
418
284
531
684
614
355
433
451
808
315
334
579
745
438
301
491
653
627
344
422
575
716
333
410
559
707
435
348
529
689
593
320
430
574
718
324
407
541
733
436
310
505
688
599
314
458
548
746
336
350
530
702
470
275
498
718
591
358
431
541
740
350
366
523
723
452
298
509
731
601
336
453
503
753
348
388
527
765
433
294
501
687
635
318
456
577
714
350
353
550
695
458
324
521
728
588
243
496
538
735
338
398
525
725
375
305
557
685
576
325
432
586
706
300
409
601
681
449
325
512
730
557
367
450
563
741
306
386
563
696
453
313
513
705
607
321
457
572
713
334
366
525
769
431
307
589
686
590
358
432
569
714
329
384
558
722
431
313
513
725
575
304
466
588
689
280
408
576
722
400
342
532
686
558
352
452
590
681
318
377
554
748
423
315
531
732
533
356
438
577
671
315
433
561
706
458
307
524
704
571
293
473
563
735
288
406
538
738
408
294
496
759
552
335
447
581
712
299
361
580
673
411
326
508
744
565
318
441
616
688
315
390
544
711
424
342
535
731
570
303
400
664
693
299
410
576
711
430
315
503
745
568
310
439
628
683
314
371
532
695
465
292
534
717
601
289
432
647
659
327
360
528
688
467
322
510
764
533
307
442
659
659
305
399
513
702
425
345
530
763
547
321
445
624
655
294
408
559
696
441
342
495
746
544
311
419
668
680
315
373
520
691
436
318
506
751
553
281
442
660
660
318
405
498
690
479
302
482
769
528
296
461
656
671
309
357
488
716
440
309
527
736
519
314
452
644
658
331
368
519
694
433
386
538
703
500
384
440
657
633
333
393
502
682
451
347
513
728
496
312
476
685
651
319
339
527
684
425
346
541
747
508
306
441
685
650
327
374
496
688
449
330
508
751
504
322
424
646
660
315
338
509
710
458
321
536
741
470
367
444
662
682
340
362
485
685
452
330
501
750
502
295
440
687
643
312
384
514
680
403
333
526
754
485
305
450
674
640
301
428
528
685
432
316
501
761
480
313
461
670
643
329
353
531
683
422
343
514
746
498
321
397
727
642
328
384
538
687
444
285
535
752
460
319
422
686
598
374
353
543
676
413
329
538
750
478
312
446
685
633
319
408
510
683
399
323
534
756
474
278
477
670
637
319
404
544
684
361
332
544
752
490
294
453
683
631
339
404
545
682
401
328
562
714
507
318
430
719
668
364
393
542
687
402
324
521
763
483
290
459
715
628
322
403
552
685
350
359
521
743
482
265
486
686
658
341
413
574
687
338
342
541
738
494
296
477
663
652
327
410
551
686
361
327
493
789
457
293
475
710
611
373
424
553
699
358
368
519
728
462
266
496
685
620
321
469
517
698
367
323
540
741
456
296
472
671
641
396
378
562
729
341
350
506
745
435
311
459
681
631
347
417
561
720
321
402
495
753
462
325
480
645
626
351
417
562
734
373
364
554
747
494
257
482
677
608
350
447
516
749
332
335
499
756
434
316
511
685
623
331
386
561
738
315
388
528
730
435
319
471
689
623
355
419
509
750
318
365
507
743
489
307
497
686
613
317
436
498
755
328
403
527
729
416
354
470
682
608
329
411
505
778
334
365
576
710
441
320
473
710
618
293
457
507
752
335
384
530
714
423
318
505
694
616
341
456
535
737
306
442
531
712
438
321
489
670
648
321
407
595
743
328
370
539
688
446
342
477
686
609
331
417
535
775
342
363
572
740
394
318
487
689
645
304
457
528
791
321
365
532
719
452
332
505
695
615
338
419
529
749
333
364
551
716
420
315
489
705
631
328
419
559
740
309
386
536
754
454
269
520
732
614
306
402
607
748
328
392
549
720
433
290
494
723
616
305
438
552
712
330
380
493
773
427
314
501
733
603
299
424
564
730
336
392
525
710
432
305
532
738
594
332
442
552
712
364
366
524
737
440
307
505
750
601
305
425
572
693
344
381
546
731
373
338
528
686
595
306
436
564
692
319
411
522
692
454
301
517
736
577
353
442
582
683
331
384
530
730
377
311
482
745
561
286
454
623
685
291
412
523
727
408
315
505
744
565
299
444
616
715
322
338
547
686
444
316
505
743
559
303
391
645
685
329
396
505
720
398
305
517
750
574
281
451
612
682
330
362
510
696
418
310
525
731
561
290
428
636
678
329
355
496
709
408
287
542
753
576
313
456
619
660
319
362
471
684
433
334
486
742
562
307
432
643
669
332
413
462
724
460
305
510
736
530
309
458
655
662
363
358
484
695
453
284
526
717
508
351
411
659
684
318
361
498
704
442
326
510
736
524
322
440
685
644
328
375
473
684
454
320
536
728
524
320
431
656
646
334
351
495
726
444
320
508
759
531
299
439
661
685
330
349
497
663
497
300
537
711
509
351
433
670
652
327
377
502
686
434
352
494
740
496
286
479
684
639
318
396
545
651
475
324
555
734
496
301
445
684
638
268
400
526
685
432
349
519
732
489
287
461
683
636
317
363
534
698
423
343
541
739
504
299
465
655
655
306
390
531
683
403
362
522
753
458
373
433
741
586
328
400
528
683
387
342
519
764
483
360
448
684
627
337
389
513
640
474
343
529
726
509
258
473
709
608
341
387
550
712
336
324
586
752
489
265
442
712
624
335
449
533
682
384
344
545
729
501
267
470
686
582
370
374
579
703
358
367
502
763
476
281
470
684
628
329
404
551
718
362
365
523
732
464
319
419
685
615
344
427
572
732
339
340
537
711
489
322
427
725
605
389
400
649
697
343
394
511
739
457
314
426
659
628
340
403
562
730
311
401
518
727
440
333
484
653
599
361
438
552
736
324
355
543
725
413
357
485
685
603
385
409
536
756
322
344
526
718
492
271
484
675
641
343
396
552
758
322
321
565
684
487
299
508
688
595
315
438
552
752
340
392
542
742
429
314
460
734
592
368
406
537
768
311
390
522
736
437
302
547
688
606
339
408
555
743
351
371
527
744
437
289
493
720
607
331
440
555
756
286
383
567
713
401
321
505
741
589
330
432
570
714
355
374
568
730
424
269
554
684
646
328
444
577
708
308
381
533
719
435
311
476
763
598
302
426
598
712
316
390
538
746
391
323
512
738
587
344
432
542
750
305
411
542
707
399
350
484
730
593
304
476
576
685
324
389
510
727
396
339
515
712
567
340
460
572
683
329
413
522
686
439
349
476
736
604
306
418
643
692
320
310
578
716
409
311
508
750
557
290
441
617
681
330
379
515
702
430
319
502
687
595
286
435
622
686
315
360
490
703
433
339
513
747
544
323
427
632
674
333
373
494
681
428
332
464
801
505
338
449
614
665
356
361
513
710
433
335
474
747
532
304
455
638
649
359
358
500
684
440
352
491
745
531
325
428
645
644
371
348
502
692
460
305
511
734
515
290
451
644
668
342
378
483
718
434
368
495
744
518
303
434
639
669
314
367
498
664
441
333
514
740
468
365
444
653
682
314
361
488
687
443
335
511
746
494
369
446
670
641
344
374
488
688
424
337
494
795
502
316
412
705
637
317
364
522
708
459
317
506
765
491
291
484
678
632
328
379
481
686
452
345
488
721
540
288
433
686
657
327
381
531
683
415
348
551
724
505
292
462
683
640
325
402
503
711
387
349
506
744
483
310
450
679
639
388
365
529
717
384
342
481
776
490
322
468
699
629
321
382
517
695
377
365
528
753
437
290
478
700
587
375
490
550
683
354
352
554
730
468
301
481
679
647
301
453
554
733
325
312
572
682
459
324
453
677
642
341
408
551
765
349
345
528
727
470
304
472
684
636
349
404
574
733
333
360
547
736
492
313
470
691
606
363
383
548
758
351
370
516
703
455
329
493
666
616
355
410
538
794
311
376
546
726
426
339
477
713
642
350
416
553
732
327
387
544
759
430
326
493
686
616
366
415
536
733
381
335
579
724
449
315
499
687
606
363
427
535
787
307
377
545
740
430
310
491
688
615
353
417
546
761
330
363
552
721
421
274
510
732
603
319
465
522
761
323
359
548
692
520
291
499
726
615
317
417
577
728
329
380
541
687
473
303
513
736
605
309
433
551
721
345
371
510
707
379
336
516
710
607
297
437
578
726
309
338
528
726
413
321
507
740
590
306
431
556
696
319
423
523
720
401
344
489
722
588
286
424
594
702
325
414
504
748
424
326
530
746
568
277
439
609
682
333
376
532
738
451
310
518
741
556
272
490
594
683
310
368
536
760
415
332
491
766
586
276
470
607
684
293
408
515
697
414
337
529
730
535
291
519
613
668
309
426
474
643
405
356
505
743
536
315
432
618
660
316
384
512
687
419
315
543
722
560
311
445
638
643
351
367
501
696
434
305
500
735
513
332
463
649
664
327
361
522
700
426
336
508
732
501
329
440
670
685
277
410
488
710
405
350
526
738
489
330
464
666
656
321
375
483
705
437
325
544
725
543
311
432
685
656
314
393
500
670
474
322
504
777
501
312
464
669
656
345
374
529
690
455
328
516
733
503
272
459
686
633
314
392
492
689
449
295
532
834
511
278
442
699
661
360
409
545
686
403
341
540
728
480
308
462
687
613
328
401
557
685
396
345
537
679
550
321
458
724
612
335
414
536
680
392
371
527
742
483
298
465
686
619
324
391
497
772
393
296
543
732
477
263
491
666
652
359
400
556
687
318
393
548
739
473
301
467
685
605
359
398
599
685
381
340
534
720
475
311
466
687
618
332
445
584
729
305
382
537
717
466
293
488
685
600
357
410
554
752
343
349
562
730
426
310
491
713
602
329
459
591
688
326
406
546
707
453
326
489
726
612
371
431
565
734
302
374
559
734
446
277
501
684
619
307
442
549
729
358
337
567
724
446
323
499
685
631
325
436
515
781
313
363
595
719
385
271
541
686
659
310
411
575
696
339
383
523
762
394
276
518
718
582
341
388
591
696
365
351
573
719
432
264
475
751
649
322
417
571
732
307
364
570
736
438
300
564
683
579
336
412
619
685
307
362
573
697
433
308
552
719
586
340
439
575
686
323
417
546
722
426
290
564
716
594
337
436
583
728
322
418
543
695
443
291
538
728
578
313
437
591
669
310
398
586
717
356
312
558
779
509
331
458
592
674
306
389
550
720
468
308
559
728
569
320
437
587
690
297
387
505
724
420
316
518
709
598
294
396
608
685
296
419
514
697
404
325
558
726
523
336
419
644
631
304
426
529
716
417
325
515
729
511
286
497
632
642
306
398
499
690
414
347
495
719
531
304
408
686
639
332
313
522
684
441
309
536
754
523
299
481
644
645
332
371
490
671
449
322
546
765
498
310
437
652
689
292
423
506
640
461
331
528
749
488
326
419
687
630
337
352
502
704
412
325
505
770
555
284
438
672
644
326
342
524
658
468
286
550
758
500
304
459
687
591
325
377
538
674
402
360
495
787
452
334
406
692
649
309
398
520
721
409
341
540
717
503
308
446
683
642
301
373
561
709
370
375
530
738
477
254
469
672
631
339
397
543
708
369
328
533
751
490
297
430
764
591
380
385
536
715
338
345
542
723
504
268
491
686
619
359
392
537
687
333
372
508
770
452
301
439
684
685
318
443
542
686
330
372
514
722
480
294
462
686
605
355
436
563
712
333
329
582
738
429
346
481
668
621
336
387
549
749
347
370
543
750
459
311
479
670
604
411
386
603
764
305
389
522
721
416
313
514
668
572
347
458
558
745
332
375
550
716
439
319
497
718
606
346
451
532
751
322
361
603
706
434
312
492
685
591
339
437
560
761
333
423
534
760
456
314
454
748
588
342
447
550
738
338
345
584
711
364
378
523
708
590
334
431
588
719
316
393
559
700
385
351
487
752
602
308
450
572
693
351
398
495
732
403
263
503
745
617
321
463
590
700
277
381
548
720
433
313
501
703
612
318
436
605
730
291
425
562
737
386
360
497
719
597
316
447
593
690
329
392
551
710
414
321
503
746
651
241
495
636
666
314
352
564
736
425
290
496
760
513
329
439
602
682
306
380
549
683
387
293
530
762
564
322
457
615
689
319
378
554
714
386
314
530
728
579
303
492
566
706
320
368
512
685
467
294
518
733
550
306
443
624
681
335
348
538
702
431
334
535
709
554
304
433
671
649
344
371
528
666
469
335
531
726
499
356
433
661
676
313
376
483
685
418
405
523
731
475
329
471
687
633
417
301
538
635
432
341
504
747
515
272
454
652
661
332
381
503
686
431
342
543
751
507
276
475
672
668
320
450
501
677
401
347
485
754
446
368
434
685
647
326
381
544
682
424
325
525
729
500
275
433
758
666
306
379
564
681
373
317
565
742
486
292
449
684
659
352
383
514
714
374
345
491
801
497
299
448
672
691
334
413
502
739
364
352
540
750
475
287
441
645
663
343
420
578
722
345
345
520
763
470
292
444
668
651
383
385
597
726
358
345
524
727
482
345
445
680
682
350
409
508
759
334
356
510
774
443
286
496
699
619
349
431
592
731
331
362
557
725
453
321
482
687
588
354
432
555
728
332
378
543
735
449
308
495
696
613
333
441
513
785
313
379
541
728
429
317
482
688
637
339
423
532
745
362
374
559
697
404
308
543
696
595
342
434
550
701
322
381
562
729
444
308
506
685
602
271
489
557
729
319
381
517
704
451
313
517
725
574
313
453
557
671
369
416
532
684
423
345
488
720
582
301
452
582
710
314
375
543
719
419
296
526
740
560
297
446
586
700
331
375
558
725
395
330
507
758
547
319
470
577
688
313
417
547
718
412
302
539
729
553
301
466
608
671
324
382
563
707
405
271
590
721
533
297
476
643
665
299
374
529
739
416
323
477
759
516
379
418
690
668
315
413
511
675
448
325
550
721
529
339
440
631
674
290
406
472
710
444
305
493
760
481
324
429
680
656
363
343
525
712
434
323
503
736
470
346
454
673
613
385
381
494
686
431
313
554
724
524
285
480
657
645
298
406
513
677
459
311
514
725
528
294
430
677
665
290
374
501
719
452
335
503
752
521
258
473
684
647
352
353
570
669
410
346
528
742
513
293
444
687
633
330
356
537
685
400
348
547
739
491
294
470
684
610
351
404
487
706
398
371
555
708
527
276
448
685
660
322
376
547
726
337
351
536
757
445
312
468
698
617
304
420
544
656
364
402
531
713
450
278
483
643
651
329
461
560
686
340
371
509
744
463
281
485
713
649
311
384
569
729
323
348
548
737
380
376
488
680
620
364
412
551
725
339
370
542
738
447
283
502
689
599
364
437
551
750
311
390
533
733
433
304
508
659
604
393
428
545
766
328
349
546
723
411
316
521
688
599
381
420
542
744
304
382
514
777
497
311
482
695
605
318
469
524
778
328
345
541
746
445
312
497
726
581
331
450
554
721
296
453
511
709
419
351
497
685
641
298
473
579
716
296
379
537
746
412
309
471
723
613
306
407
578
733
313
368
538
744
426
294
508
727
602
296
433
572
713
327
372
553
767
408
313
518
752
573
341
445
640
667
319
400
539
715
394
362
511
753
542
354
433
627
628
369
361
541
716
423
320
470
732
580
306
446
581
662
316
375
527
732
434
285
506
734
543
321
454
644
649
293
392
497
701
423
343
530
724
544
314
443
646
651
317
382
532
688
426
324
501
755
545
288
491
622
663
337
347
457
742
436
327
539
758
505
300
463
661
665
331
376
520
659
445
351
491
730
508
304
443
665
702
300
387
511
687
428
352
520
719
511
314
465
684
626
317
377
526
691
462
355
556
726
476
303
463
672
647
324
391
532
685
402
344
544
767
487
291
460
685
625
339
415
512
718
369
398
464
743
512
272
469
683
616
330
438
532
688
374
355
518
731
475
307
464
674
633
302
429
558
732
352
295
567
713
491
250
485
710
619
343
420
567
717
338
359
521
742
484
308
480
685
606
369
395
595
685
328
387
491
769
430
334
467
684
610
360
413
558
737
337
359
549
726
440
309
463
685
640
381
429
552
730
297
340
537
719
450
328
479
682
612
332
435
547
745
295
421
525
705
447
335
495
717
579
344
435
541
759
317
361
577
735
415
335
507
708
599
317
442
555
738
326
376
525
725
408
300
494
779
588
333
434
558
755
289
379
507
753
413
316
522
731
587
319
441
567
716
391
376
555
737
421
250
526
755
588
319
460
586
674
393
368
547
697
429
297
501
743
579
324
448
579
685
324
385
567
718
439
290
610
683
585
313
422
596
673
315
405
551
713
430
321
509
742
551
316
428
626
671
310
386
519
701
420
333
494
747
560
307
448
634
664
287
393
504
712
411
323
515
739
517
339
447
633
669
335
362
464
726
389
341
529
735
523
330
451
641
645
325
363
534
698
449
313
539
732
506
314
442
650
643
343
358
508
685
407
305
553
752
507
313
455
682
626
343
363
484
694
454
319
525
739
519
307
450
681
630
299
391
519
682
422
365
516
722
492
312
439
730
619
299
381
531
688
399
348
523
743
486
310
456
686
626
337
372
566
691
373
375
539
729
469
246
499
687
645
326
407
541
737
350
344
555
731
495
286
468
688
614
358
424
563
719
321
391
506
780
450
322
467
688
605
339
406
572
727
306
397
538
769
448
332
466
684
601
350
404
557
769
344
356
541
726
447
285
471
685
628
373
428
548
743
278
423
510
740
456
315
497
686
602
343
415
564
752
341
354
531
755
464
295
491
685
581
407
428
552
748
337
386
542
686
403
316
528
719
591
336
437
542
729
316
369
576
719
417
317
463
725
576
331
464
572
717
311
351
543
724
418
318
499
732
580
309
474
582
686
309
362
582
726
415
312
538
726
561
311
457
590
690
328
388
544
696
438
328
506
725
590
340
431
550
727
295
413
538
689
461
321
445
735
566
314
470
583
693
302
361
504
724
434
321
512
734
531
344
428
636
661
344
359
487
715
434
337
511
724
550
295
445
634
637
347
362
523
696
429
329
484
735
535
325
429
640
684
329
352
519
706
421
338
541
719
531
316
479
660
664
323
380
504
671
434
344
482
755
499
306
444
683
648
303
371
542
687
426
353
544
739
483
296
417
687
635
308
370
499
685
444
342
528
745
481
302
440
706
624
308
439
523
689
382
340
505
733
503
269
476
734
604
341
387
538
682
335
409
506
727
492
226
546
709
589
300
479
510
682
332
313
559
724
481
304
476
684
626
355
402
547
739
332
354
521
751
501
298
439
743
594
339
428
588
687
336
365
497
785
450
301
476
693
593
354
389
596
739
350
378
500
731
445
306
481
704
614
359
398
547
780
329
356
557
749
438
287
507
696
621
339
417
539
743
364
406
510
762
456
280
534
720
583
323
458
501
748
284
369
561
730
410
307
497
740
594
410
433
561
708
316
352
563
723
421
302
500
738
581
328
434
558
716
319
413
547
720
455
331
501
720
593
311
477
581
701
311
383
552
711
415
306
530
739
597
300
445
593
693
299
409
522
766
386
385
528
742
561
302
437
609
670
312
402
517
709
414
296
487
744
565
353
401
721
637
365
338
452
723
456
297
527
727
517
338
441
654
661
322
377
461
759
409
323
536
730
523
309
426
622
669
377
351
492
686
439
327
535
747
514
314
449
647
663
323
374
503
698
406
340
503
741
501
312
487
658
653
318
357
562
661
424
344
544
738
483
309
450
677
667
320
396
515
683
413
314
571
725
498
303
461
698
638
318
401
530
694
364
365
533
733
491
311
452
658
676
352
363
543
727
360
315
594
724
471
326
460
681
630
366
398
552
716
352
362
538
769
438
308
525
656
631
347
416
563
687
357
337
518
744
480
293
486
698
605
372
371
549
742
318
362
537
752
437
291
521
676
609
379
414
559
748
320
378
507
761
436
298
477
676
608
323
441
569
741
333
379
510
733
430
388
498
685
634
319
452
510
765
313
393
543
721
439
271
522
710
624
315
422
559
736
322
368
533
721
453
272
530
749
586
324
457
581
705
319
414
572
720
411
303
510
757
567
301
444
595
707
313
379
538
726
430
258
578
748
581
341
438
572
687
331
373
542
725
452
296
500
750
536
332
419
612
685
303
380
555
696
426
345
513
723
543
289
477
629
668
331
375
541
677
429
356
505
735
575
322
427
649
668
324
365
498
700
427
322
513
719
539
324
435
643
655
353
294
577
687
446
341
559
737
515
308
454
645
664
305
348
543
672
417
357
542
732
492
308
449
667
622
328
384
517
682
390
328
509
792
494
304
449
676
624
305
403
527
683
413
345
512
739
512
303
457
647
611
334
416
512
685
411
309
533
744
462
359
469
678
617
295
404
563
664
393
358
514
760
478
313
477
687
642
334
390
581
654
385
341
543
765
462
276
474
677
614
393
359
571
703
324
374
527
734
467
278
483
700
629
341
414
604
731
320
372
501
770
435
304
469
713
642
331
437
570
725
338
362
518
731
414
364
488
685
613
355
423
545
749
317
368
563
726
415
332
498
686
566
370
411
567
743
320
389
514
728
425
307
489
724
597
357
441
545
737
362
329
580
698
434
326
487
757
573
348
437
565
716
323
386
541
730
425
330
543
686
586
315
433
601
684
326
379
559
685
410
313
506
736
585
293
442
589
706
336
371
545
716
425
338
523
713
583
313
371
634
708
312
369
561
689
444
312
482
733
554
295
472
637
672
313
390
531
685
435
347
502
724
565
265
464
638
674
354
366
489
704
447
309
516
746
517
321
446
645
645
335
364
477
758
455
308
550
736
514
314
441
683
616
344
381
501
693
450
332
513
741
494
316
445
680
648
332
373
512
683
435
335
537
780
509
300
460
688
614
335
367
520
706
396
335
523
740
486
287
483
686
608
336
390
538
685
388
329
562
728
497
281
436
683
586
376
441
540
686
371
352
545
723
463
298
482
686
612
358
406
510
727
336
338
575
739
497
308
483
676
633
346
410
546
739
348
352
529
716
418
350
522
657
627
396
391
550
727
342
374
538
728
422
307
491
683
615
361
408
563
773
305
362
580
722
429
286
485
694
631
370
423
519
759
340
348
511
747
436
314
484
710
578
391
392
590
742
330
377
524
734
445
296
507
709
600
335
430
560
733
315
372
545
718
426
328
484
716
588
337
422
565
711
305
415
556
724
419
316
514
729
585
308
422
579
716
324
377
521
721
477
290
482
788
574
306
442
592
685
325
382
544
685
409
300
527
769
551
303
457
627
639
356
369
532
696
438
327
521
748
545
335
402
634
656
326
330
603
670
442
324
508
744
538
321
445
639
685
336
320
549
683
442
340
519
745
500
303
441
658
685
317
357
470
686
485
301
547
722
498
324
429
684
648
340
362
520
682
452
385
496
751
487
284
489
671
630
325
371
504
698
426
346
549
792
464
309
461
657
681
336
367
581
676
391
343
523
735
478
296
496
711
612
342
402
550
682
352
359
561
752
465
294
491
663
625
355
423
544
711
326
383
489
770
434
349
480
642
647
374
422
547
722
398
331
523
730
457
290
470
656
643
377
396
565
747
342
320
560
688
472
299
442
690
642
314
440
556
754
289
396
499
741
441
325
463
686
604
366
427
541
745
348
373
489
768
439
314
439
720
615
310
418
538
751
285
404
545
700
411
328
510
686
612
329
436
548
757
304
400
579
706
414
361
488
728
584
330
457
572
701
321
396
563
709
404
299
517
778
568
315
467
577
738
273
358
565
717
421
345
510
750
550
276
459
598
686
329
394
555
727
424
328
471
823
550
311
455
612
687
306
417
486
681
441
285
526
735
560
322
458
624
689
310
380
475
729
440
321
529
733
515
318
437
642
655
325
377
524
656
436
322
511
771
508
316
435
660
724
330
350
483
697
470
309
501
759
537
308
462
653
649
326
382
501
685
418
333
546
758
426
298
484
687
627
345
369
536
673
411
358
519
760
473
356
451
684
606
366
379
566
674
418
351
503
758
473
271
434
679
635
332
412
576
723
380
318
565
748
449
288
469
687
637
340
407
555
724
359
409
482
763
478
291
443
687
601
352
386
577
725
319
353
548
732
420
282
531
647
656
357
416
584
751
315
344
541
708
487
275
499
685
624
344
400
559
762
320
372
507
761
487
300
467
736
589
384
397
571
751
317
395
578
716
465
319
478
716
602
301
448
603
735
335
345
600
718
427
300
534
688
608
369
421
539
740
275
484
538
720
447
336
479
708
574
315
427
601
710
339
367
499
720
437
324
493
758
607
304
434
627
685
332
382
548
684
409
346
454
744
561
326
399
654
657
310
375
556
702
452
319
501
724
611
303
439
623
689
315
379
502
695
434
311
446
809
544
289
472
648
647
312
369
502
708
425
325
563
743
535
304
475
606
674
326
360
523
655
444
315
513
765
529
319
431
627
673
319
355
492
686
465
300
523
745
525
335
455
673
643
357
364
480
720
432
313
530
749
506
320
456
673
637
331
372
539
670
425
397
498
736
491
294
444
683
604
377
382
547
700
386
333
553
716
515
344
445
687
649
349
388
530
718
393
331
526
715
509
314
456
685
633
367
418
544
712
356
370
495
738
453
291
465
696
587
353
435
560
721
303
386
537
701
434
308
499
660
621
374
414
546
794
301
387
508
741
433
269
487
707
616
349
422
512
753
342
391
507
799
441
268
493
686
608
336
436
542
765
309
391
558
727
412
322
466
734
615
335
427
511
751
307
361
589
711
469
326
477
686
596
408
424
533
753
298
386
525
722
416
329
483
744
601
314
369
632
705
338
391
510
767
410
303
521
744
575
293
439
609
673
345
393
543
686
423
319
534
722
514
403
416
605
680
329
376
531
683
421
329
508
766
512
317
428
612
671
320
393
494
709
425
334
493
747
496
348
433
679
638
297
382
505
706
429
309
509
753
533
304
450
666
644
316
378
491
683
451
348
539
743
512
289
515
636
685
325
373
537
692
436
344
485
774
534
290
433
722
616
317
355
505
707
423
350
514
745
499
309
464
667
669
344
380
539
687
374
352
512
779
477
294
453
683
619
326
444
532
733
382
337
549
746
472
290
456
682
589
382
408
524
693
362
365
515
726
474
300
438
670
629
382
424
546
743
342
333
537
715
477
324
487
681
614
390
400
554
729
317
407
530
729
410
322
509
686
615
357
422
527
755
331
360
555
723
422
289
543
679
644
365
405
546
775
316
396
549
730
412
348
462
687
678
293
405
555
724
308
391
561
714
432
318
484
730
579
392
420
547
749
320
412
521
749
430
313
488
746
557
318
466
573
696
319
382
555
716
414
325
534
688
554
287
479
599
657
345
395
500
710
428
327
502
760
557
337
399
664
652
362
393
535
713
420
291
530
740
567
318
424
623
660
320
362
516
686
428
317
514
745
547
315
431
640
653
315
357
497
712
457
313
503
736
512
390
443
636
663
339
330
475
687
442
334
512
735
510
277
487
650
647
364
382
490
718
452
331
499
717
481
355
476
676
697
335
382
469
685
460
332
527
753
504
304
408
646
786
320
381
529
684
400
323
522
742
493
316
427
705
660
303
413
575
666
405
348
529
736
487
293
473
714
661
357
394
540
686
308
321
636
700
488
313
456
644
651
350
429
552
708
334
380
526
736
465
293
504
658
576
384
388
534
731
383
338
540
733
438
338
507
675
601
368
407
533
686
375
380
530
723
434
299
506
658
645
340
426
506
749
393
355
537
718
394
318
507
710
604
333
463
506
724
309
424
539
714
443
325
483
710
600
329
478
537
757
333
376
519
707
426
315
508
641
634
328
448
566
748
329
384
501
724
426
353
500
724
564
298
424
571
720
356
378
515
665
546
322
501
740
596
289
443
564
667
337
387
517
689
442
312
503
746
589
306
406
610
682
325
357
490
698
502
320
497
767
542
298
449
621
706
345
365
488
677
418
326
508
751
554
314
404
611
673
341
321
527
721
423
303
547
762
527
316
408
639
650
333
381
494
685
458
333
491
706
541
339
429
671
668
335
343
505
721
420
362
499
730
483
362
448
675
627
338
377
526
683
443
356
486
766
486
342
446
686
647
322
373
532
686
406
345
546
726
505
268
473
656
622
373
402
551
713
387
324
495
718
474
361
455
670
662
389
390
554
685
363
331
565
722
469
297
471
673
637
332
425
532
742
377
363
508
731
454
292
452
724
644
355
395
583
724
325
347
533
761
460
287
505
671
585
373
399
534
758
301
359
563
707
444
340
473
680
620
352
458
529
752
335
366
536
730
443
297
494
689
637
324
459
543
748
319
417
507
705
445
319
478
721
641
352
415
539
739
334
377
535
735
446
306
497
729
621
304
468
574
722
323
369
537
735
394
280
556
737
565
333
437
578
700
314
388
499
732
430
318
484
750
637
298
464
602
686
328
308
581
699
466
317
473
776
554
297
459
626
684
364
346
497
709
444
306
484
732
586
311
390
617
683
363
344
500
719
446
311
497
728
533
335
424
633
673
356
319
499
721
419
339
471
797
493
358
422
666
650
321
328
491
645
535
336
515
733
535
306
404
687
622
293
435
516
686
459
329
453
852
448
340
465
656
685
328
354
502
690
401
382
495
785
502
306
457
627
685
321
383
542
710
418
335
482
688
524
265
472
685
626
378
383
526
731
359
341
529
739
492
298
473
655
627
327
405
508
696
331
358
563
721
431
317
457
688
610
353
422
577
726
354
371
531
707
504
281
414
686
636
347
423
563
753
364
379
507
739
425
288
474
692
608
344
459
530
797
304
380
558
738
454
284
487
718
620
342
414
559
781
335
357
498
804
472
280
473
750
628
317
428
543
747
297
440
523
715
433
343
506
684
591
364
412
572
701
407
382
571
707
450
283
498
742
586
321
450
574
710
358
370
561
719
480
277
507
746
591
295
435
591
730
309
381
549
706
457
322
490
760
567
266
458
568
691
321
382
542
684
430
312
528
731
545
365
397
624
671
364
318
518
744
420
308
557
758
518
316
473
618
661
324
373
533
673
458
328
486
776
506
341
408
667
625
331
342
492
719
449
330
483
789
503
328
445
684
647
317
348
565
683
387
404
509
724
482
355
414
656
682
345
372
541
681
432
335
495
741
515
300
456
691
652
306
417
529
682
366
420
493
758
499
311
430
713
613
355
378
546
685
377
332
504
762
497
295
452
686
619
362
293
687
685
359
387
529
712
504
256
466
685
640
325
457
483
783
344
381
551
686
465
357
456
717
572
437
399
539
684
409
360
574
689
502
287
451
700
638
360
416
563
751
347
357
534
733
428
329
486
683
603
350
399
581
729
358
357
551
761
410
302
530
685
595
332
428
540
734
355
349
550
743
435
308
518
687
612
330
392
569
755
326
382
553
710
390
364
493
745
549
403
423
570
679
360
407
554
681
438
334
550
693
568
312
406
560
722
305
380
520
724
394
304
493
686
663
303
465
572
676
314
456
510
705
429
313
561
790
521
255
472
622
708
367
372
504
754
416
273
540
743
537
349
443
627
657
332
378
520
710
417
345
499
735
553
312
403
640
650
360
353
493
743
451
307
490
754
539
298
398
655
694
310
360
537
712
419
311
551
753
460
369
448
632
675
350
346
536
655
459
358
521
737
471
337
451
641
661
329
388
516
653
459
339
519
738
477
341
491
650
630
313
405
515
646
456
325
557
738
494
286
467
702
609
355
396
530
672
383
338
522
776
472
312
461
654
696
346
408
538
681
432
300
569
764
453
354
474
657
641
358
381
538
686
361
345
531
724
464
275
433
704
632
297
529
555
688
313
406
528
737
438
301
475
685
605
353
431
569
687
341
374
539
722
429
373
458
704
587
384
431
548
742
354
349
561
736
398
347
486
687
620
361
435
534
745
315
395
521
703
439
269
540
697
597
383
402
571
710
323
385
521
774
411
323
511
712
576
321
437
559
718
327
390
545
724
424
335
531
729
580
316
431
663
700
328
381
557
726
408
301
494
747
583
300
422
627
711
321
382
570
704
450
291
548
718
566
297
441
638
663
344
364
554
748
404
307
545
745
561
303
437
671
647
352
399
541
698
423
316
501
757
541
276
505
606
683
338
360
500
675
438
330
496
736
587
307
449
622
644
349
384
476
700
416
324
527
738
533
331
438
653
643
278
428
498
686
451
331
510
726
498
307
455
684
647
299
384
523
683
427
345
527
722
525
321
422
606
712
317
437
503
708
437
294
567
720
495
306
466
685
630
300
405
540
689
302
439
516
732
510
313
429
682
614
292
474
548
674
408
328
555
740
485
307
444
712
575
395
409
518
686
383
310
524
729
478
308
453
686
621
338
420
556
688
358
358
539
729
464
279
506
682
609
347
434
517
725
285
391
559
720
462
318
464
666
597
385
425
568
740
322
360
543
720
458
309
485
685
602
373
451
498
684
439
345
526
736
449
274
478
685
593
333
457
566
718
323
377
547
737
430
303
502
683
617
372
431
543
734
326
357
554
731
406
372
491
713
633
344
449
546
721
322
415
535
740
407
276
510
709
611
316
425
561
731
312
377
583
723
402
321
503
718
577
316
423
598
759
308
385
570
681
402
325
516
741
590
305
433
568
732
325
431
559
719
409
321
515
719
564
309
440
622
686
328
381
521
687
457
312
531
749
558
297
453
604
673
332
380
528
684
415
330
518
733
559
333
447
616
661
350
339
533
686
394
322
565
685
559
255
499
645
652
318
380
506
698
417
326
512
739
498
345
399
672
685
310
377
492
728
416
344
517
764
488
324
448
629
660
338
349
535
649
467
319
544
746
476
297
470
677
626
338
375
507
684
400
409
523
755
493
329
453
662
609
362
355
531
685
478
328
522
738
490
304
448
687
631
324
393
532
684
405
337
521
748
490
270
520
684
623
385
376
499
703
398
338
533
724
465
313
442
682
621
342
417
550
685
365
359
534
728
449
301
470
660
615
352
432
533
722
404
338
550
736
460
290
483
669
626
356
411
573
738
329
373
549
729
445
320
469
687
606
346
422
560
736
335
348
562
743
401
424
467
686
605
332
418
554
736
336
385
520
733
465
288
494
717
609
362
416
526
763
347
372
543
708
436
310
488
714
604
325
437
545
748
288
456
532
740
420
321
503
721
581
340
436
574
713
338
383
554
715
442
285
524
758
567
316
443
588
695
310
367
566
722
418
319
485
740
600
316
424
572
737
295
413
542
700
435
344
502
749
579
316
441
575
667
338
379
534
731
416
315
522
743
550
322
436
609
685
317
371
535
709
418
335
526
765
570
301
436
676
674
301
363
530
716
418
329
528
749
533
316
426
622
685
331
354
493
665
467
323
520
731
572
295
437
661
657
363
382
494
707
442
374
518
730
523
322
452
641
660
323
373
521
685
423
330
511
754
512
332
434
678
660
332
374
511
687
433
335
502
741
501
308
451
685
628
317
403
521
696
415
361
516
741
498
330
481
718
609
305
382
535
702
409
347
525
744
458
322
431
706
633
322
400
590
642
366
380
526
733
459
292
513
683
590
410
376
537
730
347
352
524
742
461
327
463
669
619
268
490
565
685
353
347
533
742
449
303
524
674
631
371
396
577
747
324
393
533
732
432
305
490
702
588
378
403
578
724
345
383
494
752
436
310
459
688
619
355
416
565
747
297
397
539
721
483
287
471
742
634
331
449
576
728
312
402
563
721
421
321
477
687
602
346
462
567
712
344
382
550
723
422
325
533
688
601
342
436
560
745
310
396
535
763
395
307
526
731
589
323
436
585
719
321
392
549
725
391
327
537
738
616
307
433
620
668
301
426
554
705
422
318
502
743
562
321
435
627
679
293
398
568
685
389
342
529
738
562
322
447
580
673
325
374
496
747
431
306
550
732
546
309
442
605
659
356
358
523
708
396
348
537
710
537
295
470
629
641
319
382
501
685
419
335
443
835
519
322
434
678
635
283
395
508
690
443
331
486
749
473
352
429
630
678
315
336
520
694
434
346
502
731
548
322
411
658
683
287
381
532
685
417
375
494
764
517
309
442
688
606
308
368
541
686
419
367
529
735
467
326
485
678
606
365
399
561
679
371
389
518
765
490
281
445
710
629
312
416
547
682
393
337
551
744
487
303
485
685
595
363
376
565
711
356
352
621
732
471
309
483
687
607
289
444
545
688
345
362
538
732
469
293
500
661
672
363
377
616
728
332
319
525
768
428
315
451
766
