497
464
434
596
484
531
505
552
571
424
483
554
563
414
472
507
564
459
484
576
554
593
498
452
494
645
406
459
502
600
511
490
506
536
521
498
513
516
631
439
496
498
503
568
544
458
568
547
454
499
466
674
428
516
411
594
515
473
484
543
559
506
458
605
586
474
470
391
630
504
465
514
517
641
472
487
529
609
482
446
494
602
531
472
498
598
534
460
478
574
597
485
399
444
624
481
487
547
571
528
411
493
534
581
544
509
432
663
508
482
507
595
563
429
513
487
610
456
490
421
593
590
472
489
561
548
503
558
463
642
484
523
468
521
505
498
545
399
581
448
501
508
601
524
471
482
603
483
443
604
532
591
451
512
524
602
493
445
482
653
438
455
554
543
559
461
544
494
550
512
457
546
541
499
454
562
543
558
359
597
0
749
480
542
581
602
498
429
664
623
527
495
530
571
596
407
475
489
548
544
517
486
540
547
533
439
479
640
469
536
481
549
615
482
501
582
557
515
527
40
664
18
581
455
603
521
461
462
532
585
386
548
0
699
210
525
519
619
487
529
461
407
582
408
492
567
616
483
473
539
570
506
464
501
530
509
443
510
554
545
546
472
308
620
501
466
527
581
532
466
492
556
580
489
506
558
547
457
535
471
624
636
445
491
481
548
500
468
504
564
545
428
515
537
534
532
514
460
645
516
365
513
706
491
534
529
524
631
584
461
591
651
442
479
616
450
590
537
431
664
639
335
503
70
547
392
501
510
655
508
490
454
589
541
496
486
483
615
530
465
516
639
469
451
461
475
647
401
524
538
578
501
449
480
599
546
412
636
518
592
502
525
488
538
430
640
475
552
615
402
522
611
552
490
473
473
645
461
509
496
557
541
469
523
618
527
529
512
614
605
470
518
508
451
652
451
642
627
520
508
589
497
500
583
460
474
635
557
454
467
572
605
572
499
622
543
444
559
598
564
553
467
461
483
531
480
572
497
616
501
444
512
604
501
501
458
593
537
545
476
525
549
480
523
454
584
522
487
487
567
508
521
476
433
668
476
492
493
581
530
427
625
462
549
529
467
510
579
475
494
434
582
502
445
492
557
624
457
477
508
623
407
531
500
539
527
514
478
555
568
468
487
536
546
507
461
550
586
499
462
491
525
620
441
495
502
584
434
510
553
562
515
448
523
516
569
476
499
523
541
476
540
498
572
537
439
505
524
603
400
474
530
584
472
462
474
595
513
434
564
512
510
485
630
488
519
550
461
493
613
571
475
524
412
331
373
519
723
701
675
547
517
526
536
505
501
538
559
446
470
499
655
501
488
463
561
507
453
494
488
606
487
472
493
604
511
460
492
545
553
502
509
498
602
503
419
534
654
505
495
525
533
488
408
513
554
617
475
463
532
618
453
492
559
552
516
447
533
496
600
486
523
375
642
476
455
529
571
515
426
537
517
568
462
483
483
645
214
685
549
355
691
513
749
633
200
495
103
489
595
539
455
490
552
510
469
519
373
605
499
479
519
612
429
461
527
589
550
484
521
523
575
394
494
537
554
507
495
501
522
501
435
509
535
600
463
474
507
573
521
513
489
649
485
482
548
476
552
501
480
487
625
445
493
575
552
540
473
480
496
625
476
455
496
678
422
476
524
606
597
484
521
578
594
476
454
499
564
509
458
617
511
493
522
462
519
590
459
467
476
680
456
453
498
608
470
496
528
552
588
439
451
473
563
511
566
501
532
572
492
485
540
580
465
492
474
581
531
513
497
632
509
451
479
499
649
468
434
638
657
459
462
505
531
514
468
502
560
574
461
494
485
598
498
462
463
581
606
454
504
564
601
447
691
473
619
466
523
548
495
546
499
419
575
633
464
478
474
550
498
448
484
614
515
460
524
524
574
423
537
469
550
532
466
471
562
509
542
593
544
659
458
469
496
560
484
453
533
596
529
488
523
507
566
486
476
501
597
517
506
517
594
543
449
497
568
520
430
512
526
646
477
457
572
585
457
501
483
544
583
468
504
418
628
578
448
118
626
496
453
505
541
577
474
447
446
681
509
468
550
535
539
456
490
555
550
513
472
463
604
486
477
506
571
538
464
497
528
603
478
511
426
655
472
527
491
540
580
462
476
522
505
462
469
468
647
499
548
489
547
564
492
474
529
570
534
504
477
597
518
460
455
545
613
427
470
565
632
392
441
516
806
480
685
522
847
533
60
596
134
654
476
482
569
562
457
396
617
510
622
491
563
444
805
443
584
503
759
558
336
384
900
645
491
621
697
551
374
410
633
815
552
333
487
422
630
353
645
687
631
392
697
494
557
613
476
509
560
530
426
461
574
599
478
560
496
581
507
490
480
524
521
620
585
497
644
468
514
481
460
604
533
505
508
631
419
426
571
589
493
451
464
591
623
477
521
605
552
433
508
531
569
477
466
467
649
486
337
537
622
646
441
739
121
806
53
698
0
484
142
478
736
658
601
593
480
584
578
431
477
577
11
503
218
54
636
530
410
454
851
587
581
1023
549
291
723
0
633
605
479
472
773
462
691
451
813
536
608
489
640
486
443
682
159
586
531
623
441
475
495
677
441
497
523
595
736
621
5
528
650
681
554
1023
744
471
242
505
484
468
821
810
759
698
538
521
486
512
584
493
0
619
0
491
464
686
557
420
506
417
562
443
616
699
543
598
447
1019
221
648
759
567
397
497
480
419
468
497
550
464
486
529
589
447
438
474
549
410
549
124
609
565
467
488
532
524
394
486
554
577
506
457
504
580
506
462
509
573
655
657
682
358
602
362
483
526
756
594
516
473
531
605
504
464
477
623
502
546
509
520
538
440
441
494
569
523
436
735
722
494
736
515
493
412
340
483
576
536
458
476
488
563
581
471
439
636
568
391
524
584
522
420
508
583
503
471
481
629
485
528
453
512
505
559
469
444
542
621
564
435
469
609
528
428
506
562
534
468
544
402
588
472
476
83
778
781
573
574
618
72
435
439
422
613
509
572
606
581
525
480
489
513
645
616
384
477
625
482
496
498
585
614
498
502
512
295
450
393
490
666
496
482
531
559
545
325
576
493
607
499
502
442
669
464
450
507
594
482
407
653
511
589
568
498
350
675
551
522
589
526
517
534
507
515
670
361
476
630
102
579
552
687
479
670
445
52
538
1023
444
534
591
697
472
393
404
505
652
487
517
567
529
491
426
551
631
492
471
53
620
474
447
546
618
572
437
472
483
586
503
500
528
577
509
471
509
526
511
521
464
493
507
552
528
459
607
541
389
517
478
488
462
528
534
635
414
590
529
545
623
427
484
549
585
472
481
504
616
491
483
488
585
512
478
440
698
569
439
482
476
649
186
513
539
534
807
497
699
649
220
384
318
503
600
582
632
557
571
529
455
509
573
582
463
531
460
606
615
476
501
566
533
433
489
547
610
496
530
484
586
486
467
501
531
539
470
381
607
674
383
546
399
630
489
433
445
588
674
379
439
600
634
468
458
756
633
525
569
483
456
532
377
514
274
682
2
494
0
560
854
480
497
699
611
641
498
431
483
488
501
611
562
437
465
525
561
492
427
482
532
857
3
634
456
625
663
417
530
543
739
467
751
544
754
465
482
578
591
475
415
503
556
572
457
511
311
634
461
547
476
626
496
474
477
582
490
485
496
530
623
483
495
479
597
537
422
485
611
539
479
474
591
561
467
448
503
619
474
513
462
593
516
389
505
597
580
460
774
649
592
637
560
536
524
618
559
843
576
764
530
456
531
645
438
445
499
576
512
608
479
525
559
557
502
477
657
470
399
531
581
492
465
538
590
540
391
522
517
600
482
475
495
559
525
453
503
556
573
453
492
525
645
475
506
508
593
450
457
530
560
574
496
547
455
698
432
483
518
561
493
464
497
552
589
460
506
509
574
490
495
43
628
550
434
581
526
591
449
518
470
553
491
488
485
647
619
462
577
528
140
438
488
356
520
507
526
207
484
868
416
114
657
574
406
673
528
600
494
434
478
575
500
613
479
511
661
460
511
512
599
498
413
15
211
725
485
74
681
643
440
498
490
615
545
465
494
594
550
599
0
743
653
372
745
250
592
484
722
503
788
692
447
440
313
586
416
497
543
605
461
458
470
520
660
528
655
574
589
507
507
450
503
536
472
170
638
483
464
500
551
567
495
509
469
615
539
485
461
603
525
483
527
541
551
466
747
499
593
475
537
494
536
490
504
463
616
621
382
699
439
574
488
489
474
538
473
477
501
644
549
457
497
469
613
484
464
486
546
624
473
550
550
566
494
492
467
615
604
485
456
578
554
475
528
567
555
452
507
474
613
449
522
502
558
524
460
500
553
586
454
472
503
583
520
472
518
605
501
415
502
548
646
97
504
62
630
232
554
77
1023
644
485
558
631
551
446
548
446
651
454
451
474
653
448
471
551
556
535
448
696
520
612
504
523
498
574
496
506
485
515
660
428
533
602
598
483
460
469
555
517
627
514
539
577
475
503
523
552
531
498
499
557
632
488
411
628
15
548
12
443
560
452
95
754
698
800
484
443
485
532
442
510
495
520
439
500
511
608
464
445
582
400
619
499
481
500
617
488
492
475
592
508
468
605
650
548
679
519
281
526
692
604
91
995
595
470
418
496
562
438
466
548
557
453
478
483
586
503
480
479
546
602
473
684
615
666
451
435
527
605
452
474
490
578
557
471
495
504
590
481
500
488
544
546
453
493
657
473
624
477
469
624
486
420
506
553
546
455
529
558
538
471
496
514
609
477
481
581
554
519
485
464
488
593
510
480
545
627
422
454
488
525
548
507
563
557
563
459
491
501
621
479
446
492
699
459
528
503
567
554
430
426
517
639
533
447
4
633
503
473
495
706
517
586
509
471
708
198
467
780
545
574
501
630
610
475
409
732
564
539
456
500
454
666
558
478
486
503
632
450
485
514
587
478
556
537
586
611
781
633
558
671
478
672
525
608
495
464
478
568
534
499
524
534
599
408
479
541
658
555
503
481
556
551
456
490
572
527
469
445
501
608
526
497
505
610
538
368
495
406
619
0
622
0
704
230
431
358
716
122
653
632
797
506
141
753
0
677
520
641
44
554
451
439
508
592
561
424
479
503
648
462
490
548
610
395
651
325
879
582
208
936
0
697
434
121
532
899
556
569
585
658
523
346
398
478
607
458
491
471
555
478
714
534
490
545
494
457
591
47
681
444
523
613
833
499
511
582
567
466
495
486
529
623
519
424
584
827
441
0
1023
523
572
598
755
619
447
424
453
599
496
465
476
491
607
468
492
564
597
399
488
522
642
549
461
425
579
609
405
522
567
623
441
463
2
602
481
546
540
654
526
472
498
535
586
473
451
475
578
470
489
518
551
605
423
485
565
562
409
505
486
592
479
558
500
573
538
479
517
533
567
462
485
486
616
485
642
543
542
537
556
553
506
608
419
457
470
610
506
479
517
534
542
479
476
539
562
450
528
483
604
512
415
630
428
610
482
475
521
619
437
455
445
584
493
469
520
575
537
475
462
537
631
465
467
484
653
472
418
519
549
573
434
514
546
564
459
475
464
605
480
511
505
530
530
431
522
613
566
471
452
465
646
490
508
497
634
522
467
673
522
688
437
490
524
595
474
457
500
543
539
448
485
588
559
507
467
512
561
518
449
522
572
574
505
495
493
687
518
673
506
901
543
50
637
572
508
506
626
477
568
612
477
484
650
470
486
484
538
534
471
538
528
608
433
451
510
669
698
503
499
639
611
589
510
733
566
625
552
92
608
415
420
735
1023
666
601
553
466
485
374
498
5
653
572
438
526
537
502
474
473
519
602
459
480
503
569
475
512
526
243
487
195
695
242
770
422
787
456
1023
423
569
627
747
500
207
408
482
526
496
528
637
700
722
644
29
669
17
529
606
762
609
332
47
617
576
436
605
539
562
576
622
504
465
549
473
622
512
638
437
665
378
540
512
513
595
530
650
512
467
518
698
500
529
501
568
510
431
449
649
583
468
474
494
603
422
461
615
574
514
487
521
567
551
473
501
479
549
474
527
542
544
519
508
511
505
605
419
557
530
579
483
503
468
589
512
471
463
640
564
423
504
490
589
488
528
464
578
546
457
581
564
501
537
560
496
698
479
431
480
607
463
466
576
547
542
454
486
509
633
485
483
524
501
589
555
545
555
503
462
393
526
726
390
495
452
554
496
438
510
488
615
514
460
564
602
454
481
473
533
506
513
455
537
614
441
454
568
637
457
481
477
565
529
476
493
561
588
459
502
499
639
471
455
537
611
531
480
491
554
662
484
430
513
700
498
457
469
656
495
417
565
531
611
448
441
484
573
414
464
423
530
492
571
498
530
585
464
528
499
604
461
448
491
578
484
512
548
553
533
487
493
503
602
458
486
464
626
559
555
463
667
610
467
442
524
550
455
446
460
621
497
514
676
548
550
499
523
503
594
439
468
482
647
498
478
509
663
548
452
510
517
503
439
473
503
533
507
493
492
566
559
376
513
662
585
508
520
482
561
460
394
441
577
568
511
400
557
673
484
471
391
679
473
466
469
565
547
397
504
539
488
574
535
480
1023
542
612
698
557
457
398
534
543
800
292
963
519
541
716
388
481
0
342
556
586
660
722
607
448
190
618
473
433
578
569
539
628
494
470
641
445
455
513
666
406
436
498
666
611
457
177
820
552
471
519
501
730
502
394
553
592
666
112
1023
0
861
0
619
318
83
503
396
501
523
314
670
614
171
627
461
454
0
511
478
602
118
798
659
86
604
524
521
574
531
233
605
0
327
653
148
902
337
339
696
547
466
527
346
505
509
618
564
665
566
1017
551
603
617
769
606
171
691
36
506
0
518
114
396
450
474
497
527
578
530
772
452
1023
624
333
185
397
132
679
768
419
540
473
546
456
486
611
630
479
386
699
466
687
1023
774
505
750
522
184
476
407
456
520
623
600
593
919
504
30
1023
438
211
547
0
647
323
496
362
646
425
427
578
619
0
139
517
0
857
405
768
557
267
552
482
516
684
491
321
911
526
663
551
283
698
0
414
574
639
576
457
458
591
487
521
532
521
537
547
446
655
509
595
708
0
623
149
586
475
523
537
699
455
767
562
479
409
426
1023
679
160
1023
479
566
529
527
502
619
705
0
332
482
1022
71
563
560
499
563
447
551
554
641
665
508
1023
802
613
418
124
585
130
526
451
402
608
545
538
529
551
506
433
518
589
458
492
609
494
607
505
474
437
588
500
518
490
595
532
438
493
533
614
458
543
469
1023
606
27
347
790
439
500
698
99
716
0
445
416
480
441
533
553
635
630
508
496
545
705
508
513
453
479
943
633
448
702
451
438
324
754
791
0
1004
467
331
498
444
1023
1023
753
564
507
512
698
384
152
553
0
590
539
485
507
558
648
453
62
901
0
729
497
631
544
558
467
527
550
484
472
545
698
484
178
460
654
458
488
643
837
666
655
598
577
570
464
205
634
277
721
0
638
636
1023
584
689
185
685
0
573
724
534
511
494
505
546
520
529
532
28
597
1023
631
556
723
67
656
403
556
635
703
699
762
534
332
482
620
191
977
550
236
616
545
433
543
681
639
416
332
382
676
508
639
583
460
556
504
481
516
605
419
470
520
614
489
485
548
552
462
503
482
519
569
485
480
472
549
524
494
462
605
524
514
458
514
605
485
481
477
638
479
457
499
15
813
626
577
184
760
0
437
401
920
491
768
723
0
600
0
468
593
757
489
264
994
423
413
740
760
765
903
496
426
466
499
504
0
473
652
631
472
227
513
905
459
733
735
691
0
506
0
611
678
543
166
536
844
413
526
777
713
398
408
424
570
436
725
485
661
511
764
523
1023
652
283
653
497
620
519
484
491
502
489
493
495
513
602
561
479
437
687
493
482
485
612
481
480
488
560
536
448
528
564
625
423
482
574
501
498
575
484
524
604
397
546
498
584
514
458
491
552
554
461
524
578
551
444
455
453
705
493
506
522
596
452
475
506
576
580
442
586
444
607
508
490
483
564
565
453
522
567
547
408
497
501
649
485
496
461
545
551
443
456
499
698
537
480
502
639
471
603
447
551
539
547
544
547
569
474
468
459
698
443
465
521
554
499
572
448
525
640
491
478
481
531
502
463
483
609
462
452
544
586
729
456
620
522
767
477
136
556
232
600
477
545
530
605
515
413
508
743
617
488
689
652
797
465
536
632
518
461
541
676
625
473
484
497
611
506
454
484
589
601
413
517
559
616
502
474
458
657
505
591
735
98
666
0
1023
545
848
485
505
603
599
478
369
953
519
729
504
595
515
592
397
443
477
648
498
481
497
561
535
451
499
516
655
446
440
486
674
487
490
518
597
573
491
494
531
613
503
514
481
546
532
453
504
574
567
441
507
537
568
466
494
454
552
555
503
517
559
541
458
471
500
548
485
533
455
561
581
444
450
562
551
541
536
767
603
382
446
548
544
550
477
505
547
516
462
499
539
607
407
456
614
519
513
488
539
537
470
496
545
494
600
493
461
486
618
522
470
531
541
542
439
477
509
634
487
472
466
655
547
474
475
602
552
433
502
429
637
524
456
441
632
526
455
473
571
629
448
476
569
564
456
487
482
564
525
488
492
615
561
497
502
517
561
474
491
510
35
543
476
551
526
533
435
505
559
572
503
496
498
549
530
515
480
546
620
468
483
503
632
421
450
511
597
471
470
481
554
632
422
492
571
597
498
397
512
682
475
485
504
556
498
544
483
510
662
433
498
485
572
509
468
543
520
517
553
509
552
601
479
444
474
655
442
463
571
582
507
449
454
559
539
476
522
452
637
492
471
517
526
553
530
449
600
628
486
439
506
587
455
491
509
543
543
477
482
616
547
456
513
462
591
450
499
537
549
537
438
545
507
659
540
473
513
624
455
456
489
672
472
436
505
559
579
437
501
475
624
550
472
486
594
527
456
498
512
571
478
492
504
615
503
506
492
565
492
427
518
557
572
480
484
494
557
486
484
507
575
514
539
496
543
530
475
680
412
1023
476
527
627
646
524
379
466
504
626
460
400
538
587
503
469
520
576
544
474
482
602
602
445
528
529
587
487
505
494
577
505
467
504
554
600
429
461
556
562
498
451
469
610
485
436
473
623
647
450
492
530
571
420
479
540
537
537
554
532
520
623
448
475
489
629
435
465
496
614
549
439
484
546
609
424
459
565
621
470
484
680
550
498
477
510
583
610
483
481
493
559
522
420
470
593
643
464
685
535
335
613
607
899
771
0
691
487
6
528
0
568
0
698
473
492
519
679
472
433
449
579
483
649
476
550
648
459
510
501
573
454
437
489
471
660
388
671
699
623
491
501
533
0
511
476
484
634
524
468
480
497
652
437
475
553
587
457
509
471
541
525
488
497
787
590
472
530
506
586
459
457
531
610
533
466
480
538
607
457
441
563
725
452
484
467
552
527
436
454
619
551
445
500
545
588
473
462
482
577
563
484
498
592
565
473
507
502
603
457
474
503
557
469
507
559
571
518
491
546
464
608
472
503
520
565
513
449
542
554
537
504
521
558
555
499
457
500
611
543
454
456
670
523
470
489
526
0
515
438
533
629
548
498
490
547
502
459
508
530
542
450
539
432
642
551
477
542
519
526
484
428
530
659
425
485
537
569
535
458
471
654
558
460
495
552
595
434
497
491
600
491
475
451
679
544
443
465
566
602
399
470
473
628
524
431
580
557
513
431
521
522
554
479
496
456
610
528
470
474
630
598
394
472
506
678
455
470
484
593
500
0
617
642
284
655
598
687
287
748
0
686
689
11
741
348
681
503
732
584
251
365
8
508
492
701
528
492
462
490
442
465
555
533
601
458
542
510
58
466
0
0
1023
643
698
579
128
688
418
491
519
642
458
423
445
582
556
459
546
518
558
492
527
646
633
501
499
479
555
522
434
0
556
649
498
633
511
637
509
467
473
489
531
569
593
620
726
421
593
551
438
621
0
636
651
541
424
473
501
480
468
677
473
622
488
551
472
550
538
422
538
580
546
457
498
530
589
334
607
448
508
550
539
481
506
590
456
449
483
634
456
511
526
609
488
442
471
693
539
496
513
454
641
433
473
509
564
539
472
470
559
555
452
540
532
567
452
512
480
619
540
454
464
471
587
560
465
717
664
480
481
495
547
550
477
503
533
582
470
479
506
648
461
434
556
629
484
489
491
589
613
368
521
566
592
532
484
490
621
453
475
523
481
695
504
469
536
587
457
495
473
608
501
493
526
597
531
463
600
510
627
502
485
472
589
493
473
484
606
549
364
531
634
508
499
554
454
554
514
444
483
564
630
447
506
513
554
495
510
435
811
587
453
512
583
520
419
484
665
601
491
488
480
531
533
460
508
508
612
480
495
495
638
496
463
438
564
502
515
489
607
510
624
466
543
555
489
491
394
601
586
468
503
531
664
484
552
569
483
427
388
490
600
651
544
562
968
787
830
548
195
645
488
543
301
1023
504
563
534
657
574
406
421
484
574
470
521
510
544
520
494
513
847
0
518
589
183
698
524
545
479
560
549
583
468
817
600
444
583
582
38
572
0
605
58
721
488
409
694
1023
520
560
271
603
507
400
787
734
594
665
25
825
551
698
558
737
617
503
499
481
609
507
446
489
589
613
412
536
545
604
361
458
504
535
566
468
585
610
543
484
566
505
564
451
476
424
575
520
511
488
560
612
444
510
522
580
474
536
485
616
491
500
542
620
477
480
555
479
603
458
489
464
573
510
470
487
557
522
541
487
539
542
486
486
411
622
519
523
488
553
603
471
447
553
637
440
466
497
555
483
478
473
602
580
429
467
645
522
434
584
484
551
477
472
515
546
490
471
510
528
525
473
540
451
595
456
540
485
533
562
477
505
535
569
456
461
498
574
480
552
640
759
511
157
700
407
666
510
755
460
595
508
477
497
566
516
439
488
507
595
514
554
474
612
469
491
443
685
469
505
541
516
554
0
511
0
670
229
559
506
635
0
600
511
720
639
411
538
535
627
448
493
485
550
492
428
472
636
560
466
510
448
695
511
475
505
484
662
486
501
545
621
472
452
473
562
447
499
590
543
518
463
478
754
620
420
437
0
697
202
618
451
500
540
466
425
621
217
615
564
529
573
430
416
877
597
510
485
488
602
535
600
473
259
566
977
0
692
777
688
486
416
422
0
413
691
495
681
608
488
463
513
461
369
559
578
584
427
473
507
560
515
415
516
655
0
504
504
594
616
461
462
512
612
478
510
513
570
503
479
503
552
568
450
498
494
644
470
446
566
675
493
544
481
549
528
422
545
495
587
513
452
491
588
538
466
497
552
592
468
511
467
616
472
464
503
618
520
435
513
501
507
635
552
463
557
566
494
413
573
520
511
476
516
629
442
487
461
640
481
436
501
539
505
536
432
569
618
455
488
519
554
472
519
466
557
540
501
488
539
576
477
530
495
598
502
485
440
610
108
556
525
601
14
497
0
492
608
404
482
625
750
540
496
526
595
738
364
638
545
607
458
483
472
637
535
456
539
509
496
493
489
509
465
543
543
444
599
524
434
519
568
580
472
512
520
584
443
568
469
614
568
474
485
510
552
486
690
522
654
673
547
466
527
478
471
463
546
29
690
11
760
666
598
523
475
546
514
408
523
127
46
576
575
275
856
265
649
531
342
520
479
543
582
698
552
529
477
586
484
527
484
666
479
721
745
628
577
790
452
426
451
503
674
459
255
805
448
553
653
697
442
445
483
631
438
465
594
549
533
613
580
529
0
749
518
593
613
459
544
506
773
822
746
497
737
53
613
0
649
590
473
617
481
155
478
527
515
636
728
465
448
459
497
460
473
596
623
473
573
538
532
475
517
471
500
601
441
488
446
615
425
548
663
675
576
379
506
541
573
409
470
482
631
513
445
496
537
531
441
441
574
660
449
528
471
549
427
523
511
557
570
596
537
611
638
165
1023
687
749
643
649
530
542
520
369
458
630
630
410
512
591
528
522
501
491
532
606
378
492
612
608
460
467
502
543
511
429
551
784
640
442
517
549
602
447
480
465
625
505
485
481
543
542
451
558
534
696
406
481
531
550
480
478
580
619
563
469
512
517
629
472
499
369
647
526
466
480
620
589
429
500
539
592
487
478
451
542
558
500
479
591
607
440
484
589
576
471
537
462
573
542
482
394
593
626
412
508
547
600
479
480
467
561
481
540
517
549
590
467
494
467
675
497
449
499
626
536
453
468
510
577
430
595
528
566
555
473
391
645
581
418
514
506
509
530
419
621
623
447
527
427
501
521
547
484
564
548
476
504
501
600
510
485
474
621
518
473
498
508
562
546
570
540
613
457
466
489
544
520
530
549
551
542
421
514
495
611
514
476
495
576
523
413
535
643
506
470
540
496
558
456
465
514
603
0
465
458
607
564
486
511
510
625
435
427
468
654
541
441
500
593
518
425
513
507
597
395
494
581
510
607
515
471
547
540
472
458
611
540
441
564
446
617
481
456
502
507
557
559
486
549
631
440
468
432
590
486
466
600
573
516
449
542
531
588
463
394
622
553
514
527
544
612
508
462
495
494
557
454
504
583
539
533
496
467
616
480
442
586
566
601
482
515
482
589
466
407
412
685
599
424
522
534
565
487
485
463
716
509
461
482
574
503
468
542
474
634
572
459
455
564
480
466
539
573
538
472
500
531
580
508
460
458
639
490
452
548
586
568
433
475
593
574
456
502
486
517
495
502
471
617
546
451
496
575
594
426
499
516
602
486
413
477
606
524
501
585
504
586
472
546
587
881
557
450
669
657
733
462
636
567
775
450
457
550
620
469
448
602
571
496
482
559
540
549
431
496
496
644
491
472
469
568
492
432
550
541
554
485
477
525
569
454
526
529
626
473
453
486
605
579
464
496
467
564
500
526
532
585
526
483
459
511
553
500
488
480
603
489
467
481
548
589
440
495
531
610
461
453
488
629
452
486
495
761
583
439
475
569
681
476
487
474
587
516
495
490
597
533
431
529
539
589
443
550
476
560
489
466
526
584
518
500
491
548
582
485
516
467
613
484
488
510
567
527
485
471
552
627
477
473
521
565
499
531
496
592
567
464
487
532
593
489
498
483
607
475
463
491
568
600
468
471
530
588
522
571
424
619
546
464
387
452
551
522
516
563
482
423
526
492
578
592
417
605
550
486
498
529
540
532
457
484
483
650
532
399
501
660
543
429
477
626
608
407
526
525
575
478
481
498
569
562
508
466
542
565
454
425
544
618
485
474
508
604
582
463
513
538
648
425
456
485
645
454
481
575
545
564
451
520
563
590
396
442
578
588
463
535
500
618
550
440
530
568
610
432
495
446
628
0
525
474
625
483
537
538
509
598
491
496
466
636
526
435
384
559
0
552
0
488
802
339
697
630
962
663
522
248
536
56
543
562
621
622
498
505
380
566
459
478
518
701
477
568
468
492
612
465
396
572
33
499
533
389
593
0
614
0
595
609
524
510
617
595
497
495
375
646
0
730
370
718
720
475
592
498
530
453
458
514
611
505
456
593
562
542
477
611
445
652
460
444
485
624
512
431
493
512
636
454
497
525
580
478
547
519
557
515
495
506
496
622
329
493
620
552
543
525
491
553
480
453
459
527
645
479
535
490
608
490
474
474
542
608
449
488
622
584
382
483
514
571
502
521
509
593
591
428
496
611
579
406
473
451
601
568
459
518
558
564
420
509
541
529
478
573
526
586
509
512
510
593
513
459
472
577
557
454
499
497
561
501
558
501
608
517
434
457
559
555
460
548
460
663
461
287
574
722
435
509
554
554
522
382
482
483
631
490
496
513
533
586
478
522
576
518
429
498
489
618
550
498
486
591
501
448
487
596
614
402
546
550
590
481
519
500
570
531
458
503
545
512
479
607
464
636
476
502
466
749
516
464
527
530
700
418
470
563
627
469
458
457
627
560
440
529
581
531
452
567
458
632
515
449
263
591
1
529
0
618
307
905
645
503
847
543
525
533
529
584
474
557
534
583
473
467
500
621
485
417
479
629
513
537
491
564
480
412
690
490
571
0
525
285
559
0
569
547
598
547
417
530
471
603
517
547
697
558
359
463
463
714
532
776
653
526
502
417
445
427
619
0
1023
451
512
761
481
510
569
496
475
427
546
756
468
452
549
536
621
427
496
579
558
527
480
534
540
485
459
530
577
560
445
511
507
612
460
452
500
558
539
454
641
559
538
523
455
490
571
501
498
469
535
535
475
518
552
557
458
520
509
601
477
446
494
587
507
468
535
527
585
488
473
473
661
0
526
490
624
520
472
513
561
547
453
496
547
617
449
478
492
655
489
500
500
568
599
407
468
531
609
501
511
477
586
533
451
439
560
560
469
522
540
622
465
491
495
560
522
397
500
649
594
452
495
509
625
445
448
519
655
465
463
621
543
568
491
466
463
571
480
495
494
567
530
461
570
516
534
511
467
487
661
420
488
591
516
556
482
588
504
635
471
524
551
615
442
457
445
653
491
477
491
595
520
483
462
521
685
426
472
578
593
447
482
531
535
536
498
484
505
627
459
472
495
565
506
472
524
551
576
420
500
460
652
447
466
549
632
472
475
509
542
560
439
539
528
613
488
489
453
595
462
443
625
521
597
446
509
473
566
473
457
477
567
573
459
503
631
520
401
498
749
565
483
497
519
565
479
452
497
591
561
460
521
505
567
485
468
487
564
521
466
503
661
627
501
495
530
525
433
493
457
549
557
479
490
559
637
461
498
513
593
467
475
484
567
509
483
501
541
494
482
609
485
582
523
453
448
577
519
484
496
568
540
463
470
548
670
474
463
524
587
495
487
506
542
557
483
512
536
599
481
475
478
701
549
506
491
611
582
466
468
497
623
506
472
196
620
0
509
0
674
383
696
522
684
611
510
514
606
561
654
449
576
641
538
434
404
506
696
483
482
496
687
362
397
608
380
604
480
465
662
1023
515
446
914
675
524
524
533
239
1023
438
484
616
701
0
668
109
538
0
465
609
641
607
508
551
510
561
451
450
458
608
455
489
519
581
376
501
484
545
589
469
495
463
575
507
443
421
616
691
447
500
544
589
427
452
519
560
529
473
500
507
593
447
492
567
615
479
459
454
589
460
491
631
547
549
469
494
518
554
457
507
477
583
540
474
504
540
586
507
456
506
666
445
526
529
582
576
464
471
551
539
466
602
519
847
552
0
527
0
102
621
469
758
648
354
473
488
559
0
478
180
668
0
528
0
668
533
474
526
502
610
480
459
439
580
536
506
561
408
697
668
766
607
672
604
458
393
639
426
490
493
376
593
397
452
670
702
536
575
552
694
468
458
458
624
572
480
476
508
554
477
504
497
572
513
465
508
601
529
387
567
715
456
524
566
465
590
477
474
457
542
615
418
524
492
589
500
471
310
630
0
532
0
482
629
675
632
601
661
485
360
407
571
489
472
524
585
514
437
515
543
500
160
582
95
645
490
624
554
796
528
624
501
613
625
469
521
481
543
433
509
470
407
544
440
1023
542
686
551
498
528
660
487
423
505
568
556
435
504
536
574
494
482
468
768
492
508
511
628
537
458
457
584
505
428
536
491
574
509
443
493
585
507
467
521
677
617
427
472
562
596
506
457
492
551
559
478
496
551
567
541
461
481
580
474
527
481
592
506
455
486
572
614
454
502
540
548
495
453
514
619
501
504
469
512
622
415
485
532
602
474
461
465
580
570
480
477
494
617
392
507
612
546
480
542
537
504
482
482
552
530
560
450
516
493
588
492
476
532
525
550
467
537
533
529
375
534
502
780
503
559
491
572
587
446
488
535
544
459
541
475
593
539
484
469
567
512
484
560
488
622
524
469
470
568
463
426
534
652
514
470
540
542
525
443
531
472
654
482
506
441
531
537
442
507
543
601
433
479
487
636
511
444
544
583
467
450
701
502
581
500
498
450
555
475
486
527
597
527
468
498
505
603
453
499
469
641
515
418
508
671
172
517
502
550
603
450
465
479
591
489
492
519
569
542
478
497
546
604
388
472
643
504
543
481
533
529
422
486
524
565
633
461
499
469
581
462
487
493
580
499
421
554
505
619
495
485
470
552
474
512
458
609
601
421
486
531
608
456
484
539
600
498
486
467
622
490
435
480
558
561
378
408
686
604
439
533
401
451
664
408
552
610
628
11
466
456
608
507
512
508
564
492
476
510
548
597
474
503
507
612
485
471
497
560
535
478
462
548
599
490
406
601
692
422
477
503
561
493
441
528
549
601
461
493
464
595
488
420
526
659
536
457
450
563
624
394
484
500
613
447
424
509
607
499
484
526
525
611
411
483
270
631
0
600
0
491
612
484
939
772
788
551
475
459
588
618
504
759
753
640
469
519
654
558
403
464
502
595
474
496
506
593
517
438
519
540
567
22
583
55
325
0
559
0
657
428
1023
656
229
676
548
518
982
585
442
619
563
793
364
34
435
1023
638
790
678
588
556
449
421
534
506
519
526
464
552
554
450
434
501
862
537
469
507
605
519
397
485
622
581
455
466
553
569
464
447
611
540
478
492
492
667
553
483
502
530
619
497
445
470
552
487
464
545
573
539
462
593
452
550
490
552
483
538
492
455
520
492
586
449
476
502
633
590
448
554
600
457
457
433
632
572
455
484
519
599
459
469
513
539
427
525
485
624
562
501
466
451
567
415
541
523
584
513
473
497
553
569
468
437
477
696
401
453
602
619
464
492
519
509
615
475
481
491
819
493
447
513
662
536
426
484
532
570
417
603
445
647
470
447
489
546
509
516
501
562
553
439
530
483
529
549
524
481
590
509
498
527
526
530
451
485
515
600
459
462
501
582
473
468
546
541
575
462
548
499
526
536
481
471
585
550
425
571
518
560
473
476
546
552
398
494
543
528
540
469
519
536
567
463
515
218
649
0
555
0
421
449
322
445
696
737
572
409
763
619
439
547
431
699
504
718
562
547
533
493
488
486
698
426
450
619
568
539
476
511
535
533
548
452
552
711
0
664
523
577
570
468
479
692
513
494
498
542
669
632
653
521
616
590
698
550
90
558
338
637
618
837
697
655
592
301
514
478
660
581
591
458
338
526
630
456
497
463
616
466
489
492
565
590
0
556
441
698
504
482
515
538
486
512
523
608
509
476
484
469
561
484
522
470
582
508
429
491
497
656
476
545
491
580
492
473
424
622
532
487
536
544
549
454
476
522
626
465
471
463
631
490
460
610
576
504
408
497
508
643
503
494
477
547
472
443
484
584
605
388
560
504
554
496
420
461
622
510
501
498
582
555
441
478
532
602
474
504
23
582
534
495
563
653
792
350
465
530
673
455
470
482
573
471
523
602
487
592
188
542
516
606
456
0
504
313
594
659
623
592
597
493
401
484
577
443
579
490
525
90
539
466
566
576
475
545
495
567
407
430
556
666
494
494
494
505
691
444
475
556
656
479
457
450
566
555
492
477
495
550
504
548
481
648
477
459
533
519
605
499
515
717
555
435
503
529
635
459
477
439
589
547
446
501
592
532
457
439
527
603
444
464
545
591
506
503
529
505
533
464
487
568
606
485
461
452
640
510
511
531
562
531
446
552
460
699
484
477
516
507
546
548
502
472
579
526
444
514
608
489
476
461
562
512
474
508
617
538
452
483
526
594
467
458
424
698
536
456
499
615
534
427
470
496
840
897
596
484
745
630
779
504
555
516
490
493
497
653
403
492
554
547
467
500
484
643
556
483
507
515
618
450
484
468
550
466
520
547
553
539
513
496
464
587
509
428
499
622
540
487
472
553
553
428
503
527
607
429
470
575
604
499
526
445
552
598
529
502
551
618
469
445
430
649
464
473
426
594
677
372
559
552
661
363
471
465
626
77
487
487
593
542
453
490
498
625
512
471
420
596
519
420
572
622
547
460
483
468
577
490
492
507
544
540
480
489
590
528
526
543
512
600
510
443
385
467
497
509
614
793
356
1023
691
577
923
605
696
572
469
490
556
478
463
601
461
479
549
569
467
424
567
590
537
510
501
514
567
669
479
160
730
0
592
0
502
493
446
439
0
998
470
696
885
515
548
467
549
618
467
462
396
556
627
452
512
478
1023
616
578
629
644
383
480
589
549
516
455
585
221
681
32
627
0
623
513
395
480
563
564
482
634
1023
958
550
530
402
527
429
482
567
112
1023
448
522
419
744
0
488
0
651
506
383
595
515
397
453
539
657
664
435
514
596
609
534
0
502
658
436
453
535
606
595
456
428
469
614
473
450
561
609
501
484
476
488
558
460
481
1023
664
537
27
573
539
413
216
563
199
385
578
216
572
222
479
3
442
0
698
204
610
416
515
661
405
657
760
178
526
575
472
125
543
484
576
663
465
0
479
549
485
532
507
607
538
392
479
629
699
561
473
457
647
473
462
632
581
0
738
482
359
656
0
668
476
204
47
726
583
696
556
524
524
640
519
773
525
467
637
480
488
551
560
126
785
488
454
626
0
1023
554
617
483
554
643
554
446
357
513
589
550
527
548
499
639
470
510
476
553
530
154
555
520
617
452
507
520
581
482
466
480
602
479
483
533
196
635
0
559
0
1023
14
1011
565
878
587
344
524
505
670
476
610
502
372
728
0
554
628
592
454
461
497
743
454
516
497
615
492
466
474
604
547
431
482
553
566
442
461
584
543
528
536
465
699
446
440
556
506
626
496
481
466
624
500
463
519
542
581
460
491
562
598
428
464
475
690
506
443
650
594
568
532
0
793
632
310
1023
450
753
725
542
668
581
466
85
498
529
663
436
528
487
530
537
437
0
679
508
529
450
1023
611
650
567
543
599
0
589
444
577
555
468
443
560
620
447
525
518
597
421
441
550
593
531
495
522
478
751
477
463
540
603
497
472
517
569
534
430
507
333
534
0
591
0
469
682
460
693
1023
700
651
410
898
619
457
526
502
667
448
441
475
566
557
495
453
549
631
447
478
587
567
472
514
531
590
513
437
454
554
633
381
576
460
689
470
449
470
725
516
181
534
617
580
440
515
516
571
472
491
543
546
510
481
481
567
593
365
751
528
821
171
763
514
0
681
478
622
251
684
0
833
529
526
579
497
757
572
336
371
528
1022
807
749
652
516
508
357
507
463
557
594
410
482
538
557
453
473
524
613
434
498
491
673
491
451
557
603
613
484
488
482
523
484
578
420
630
609
443
480
556
583
433
449
661
614
468
507
567
631
552
455
0
622
565
0
708
0
733
549
634
59
645
526
327
474
514
899
388
573
613
681
386
430
458
594
516
492
482
575
523
445
492
546
598
137
480
489
604
513
465
497
555
543
472
505
545
599
475
486
471
601
522
471
485
557
582
465
491
505
633
500
503
437
589
653
366
497
414
512
0
531
45
703
510
512
462
838
573
544
506
1023
621
394
510
552
603
493
443
455
579
521
473
511
622
534
637
508
556
428
578
0
594
616
529
504
453
549
596
461
469
521
602
475
448
477
555
502
348
508
527
645
472
463
478
616
511
418
534
558
524
446
496
616
513
481
516
488
681
483
539
454
640
510
480
512
561
497
520
529
495
659
486
484
438
567
564
461
515
509
796
502
481
562
581
495
502
466
511
547
549
478
560
556
490
467
513
618
494
463
481
622
501
471
478
572
554
530
557
503
573
478
436
526
605
624
539
1023
597
494
683
693
630
776
474
771
493
621
531
479
519
575
535
440
500
551
583
459
442
599
542
513
335
516
619
510
519
614
561
567
465
436
473
557
543
447
491
574
520
583
473
528
645
15
468
498
554
528
554
512
521
482
458
582
503
598
479
502
422
572
599
458
495
611
555
412
598
548
604
492
491
457
515
494
483
557
546
585
465
475
528
549
463
482
494
584
537
489
505
400
532
0
631
108
735
459
741
587
646
629
480
0
671
517
485
471
601
612
407
483
509
611
497
441
469
559
596
440
513
534
653
430
476
493
574
493
387
75
428
635
0
594
573
549
460
461
502
559
527
482
460
339
489
0
555
263
703
234
773
0
619
508
515
527
592
501
445
499
592
578
526
511
636
630
716
563
159
616
685
500
524
486
590
446
540
570
619
487
514
476
1023
510
660
584
574
603
466
476
444
681
495
507
536
541
541
428
493
601
566
451
443
479
556
579
472
613
383
554
0
553
254
773
427
660
507
634
455
529
505
699
535
594
628
579
586
130
492
218
648
0
462
604
523
671
539
550
534
522
292
528
626
640
81
583
493
648
673
516
536
494
273
646
490
490
728
594
522
442
470
383
503
517
614
537
528
468
447
614
697
564
0
724
787
691
543
745
591
660
509
663
645
712
620
548
381
919
443
490
635
680
517
408
426
758
512
454
461
675
519
449
490
559
535
472
471
495
607
479
487
443
594
525
422
543
631
592
462
516
479
635
490
457
482
243
542
0
645
193
496
1023
707
818
747
556
102
135
160
556
725
353
681
374
1023
116
135
889
52
448
578
91
574
0
466
323
493
580
662
646
765
45
593
0
328
635
323
967
759
102
427
400
475
642
515
479
522
908
638
691
537
576
630
453
861
608
522
439
600
86
480
0
534
10
630
630
443
312
1023
715
616
688
694
511
344
387
570
575
307
606
0
452
566
492
474
766
759
635
510
233
528
452
71
541
773
654
551
506
257
565
444
382
561
1023
1023
603
540
655
517
356
365
552
505
556
559
587
517
581
445
461
483
606
485
504
517
626
486
441
525
547
606
20
521
515
618
499
583
468
585
508
482
492
310
533
486
465
659
697
508
439
0
605
473
481
1023
685
795
648
502
415
591
301
317
781
718
887
487
633
602
374
360
412
415
666
686
725
614
633
576
372
354
591
564
464
519
506
558
463
471
484
596
520
469
486
636
497
475
555
535
600
495
470
520
558
437
456
530
565
573
496
690
640
558
418
479
0
470
429
434
561
578
733
539
524
502
603
489
526
533
634
811
0
707
243
539
65
381
503
479
467
492
558
675
595
463
486
586
619
496
476
494
636
460
527
502
514
533
468
439
535
743
404
625
577
624
514
448
455
615
490
409
537
579
563
463
508
516
527
540
514
411
591
475
335
486
577
716
508
509
486
628
392
483
460
655
582
447
510
518
521
413
474
528
619
512
508
409
624
424
267
555
684
478
454
659
468
562
457
434
461
635
487
567
450
565
623
375
653
480
664
467
433
470
596
482
1023
710
621
379
168
606
441
538
761
532
389
58
497
0
419
699
529
541
503
587
610
354
471
606
534
762
648
491
612
578
446
529
552
457
495
455
574
507
612
399
505
400
1023
442
609
736
763
497
513
9
756
332
569
381
577
185
631
0
585
64
496
396
557
420
548
0
451
733
484
461
657
675
682
342
439
358
663
504
460
528
523
529
511
494
501
715
488
453
543
621
438
463
663
479
594
462
466
528
609
481
450
469
647
543
446
639
501
520
504
524
450
644
469
538
467
589
480
502
466
516
619
338
485
666
569
531
489
450
576
596
591
515
549
664
460
462
507
553
509
502
576
524
567
462
467
551
542
486
486
535
622
567
469
327
656
570
484
477
624
553
446
437
516
588
479
513
532
523
555
545
461
545
595
484
550
521
592
534
397
474
514
476
637
494
541
616
421
489
506
504
510
651
381
639
559
446
438
577
607
428
518
519
543
495
468
519
556
610
453
483
666
732
92
49
727
538
389
635
262
806
558
482
399
499
465
515
534
529
511
456
516
486
497
736
451
490
586
571
465
494
486
567
411
541
539
542
576
544
471
525
484
473
647
478
591
515
485
447
495
512
541
453
572
631
480
453
461
607
527
385
473
661
514
472
509
514
516
570
451
509
685
451
461
508
534
469
650
512
553
567
467
432
537
636
400
556
271
424
492
0
628
470
551
443
618
582
543
486
514
482
515
482
513
538
526
555
198
523
568
504
531
561
447
555
503
521
383
549
638
383
533
543
590
454
455
455
661
508
473
493
567
519
511
518
511
582
490
487
424
519
560
478
572
644
519
491
508
429
690
457
495
475
604
500
471
461
540
653
323
594
629
576
478
523
450
525
523
455
569
691
559
451
498
568
598
427
457
447
646
456
542
603
547
575
438
455
520
608
457
612
451
552
493
535
438
484
563
560
513
511
598
461
483
472
524
614
429
492
600
526
433
541
531
593
440
502
461
550
519
451
546
502
583
475
489
559
573
460
459
477
622
498
516
494
578
609
469
451
514
633
436
486
492
527
630
453
356
739
555
368
510
596
629
483
476
424
655
473
485
512
574
631
422
492
538
628
493
485
439
632
485
475
452
608
512
474
536
512
547
509
510
473
618
479
433
475
673
492
518
507
747
545
695
521
787
548
8
462
916
606
610
570
658
494
509
435
367
474
737
509
440
481
504
523
60
530
601
150
533
541
548
625
575
607
553
613
593
532
421
547
550
433
530
504
583
652
462
467
566
545
510
513
460
578
494
473
445
645
487
492
435
624
562
424
534
472
547
490
493
475
634
498
426
473
601
557
458
509
576
602
424
525
462
564
486
479
488
553
513
492
510
536
522
533
555
485
604
533
481
482
533
525
490
476
536
611
449
497
528
570
505
460
507
506
617
539
484
571
666
456
481
481
562
496
430
523
557
559
127
551
512
559
389
516
517
582
565
455
560
556
478
459
553
475
542
506
496
458
403
555
0
559
425
766
529
191
530
760
650
663
537
668
532
348
357
604
499
467
508
607
700
442
440
440
