485
700
450
499
495
553
538
394
695
663
623
185
562
38
611
116
486
485
807
503
484
546
567
530
451
466
506
671
437
472
604
632
704
475
321
577
336
405
463
737
300
546
0
694
448
537
479
623
546
637
440
466
442
612
494
444
579
544
416
219
337
894
545
491
593
464
899
424
496
518
625
596
468
465
438
576
515
439
494
543
603
560
456
602
549
436
532
483
620
489
165
513
349
543
0
624
564
603
462
462
580
654
448
505
451
352
506
0
581
578
657
329
454
994
256
795
635
793
379
594
0
471
734
384
488
651
592
653
0
703
392
574
470
594
487
530
480
424
483
525
577
477
416
568
622
467
562
517
565
567
399
480
558
590
436
481
448
613
528
466
497
544
581
437
500
469
611
546
480
547
418
522
0
535
457
602
519
581
517
680
513
495
504
463
870
425
563
643
731
505
450
466
565
475
466
446
529
538
473
480
577
540
448
508
376
688
653
455
521
628
466
517
493
537
519
480
544
506
678
455
498
507
547
428
468
540
590
455
489
698
434
605
487
450
521
538
489
453
528
567
585
465
485
555
582
462
396
540
659
476
529
471
563
518
400
509
509
607
555
458
449
550
491
473
509
538
551
532
540
481
542
399
549
508
542
490
559
498
648
471
507
530
501
607
546
451
466
576
553
483
484
459
658
508
441
534
566
553
444
460
618
494
478
506
528
521
411
521
500
593
454
469
510
430
514
6
590
506
476
1023
875
570
436
655
611
453
691
496
659
513
585
547
579
479
535
615
466
437
445
564
469
497
511
538
535
534
467
555
550
501
440
522
858
591
482
632
611
825
463
441
530
629
508
531
461
303
492
0
501
597
699
118
468
511
979
406
788
685
697
496
357
433
529
491
607
425
829
558
655
482
473
656
621
464
529
576
572
461
466
544
558
493
485
483
533
519
482
617
535
569
483
548
485
771
449
476
527
558
570
487
391
617
517
472
548
475
583
490
514
462
514
590
468
440
712
522
480
535
548
606
442
382
507
667
515
519
519
526
505
457
442
550
651
497
466
495
542
577
477
492
642
515
429
582
518
623
418
483
484
575
585
479
483
570
559
415
489
551
636
486
493
452
537
545
431
471
527
567
474
529
512
609
424
490
575
539
524
480
525
531
560
433
481
484
597
446
523
476
657
491
488
484
517
558
445
488
594
562
518
466
523
497
609
460
529
506
595
512
422
575
614
482
440
455
535
608
476
480
696
599
362
454
563
675
488
493
509
495
546
438
451
627
574
470
439
590
524
473
488
485
582
455
487
601
557
579
474
499
500
582
499
453
468
317
627
460
606
608
450
476
360
586
699
492
571
577
1023
497
554
546
634
572
347
403
681
568
56
512
85
242
701
541
575
569
501
425
510
445
550
627
531
497
487
641
450
476
645
475
459
592
474
743
468
489
435
657
496
451
521
704
550
455
534
806
576
446
486
494
607
492
483
653
603
368
774
475
607
647
62
615
0
546
522
506
546
623
499
396
552
448
572
450
491
525
487
534
541
493
547
543
433
546
586
506
540
473
501
502
531
457
491
635
507
465
493
529
614
435
500
482
598
531
550
459
527
601
476
504
499
581
355
553
506
532
693
310
690
654
681
626
645
673
506
772
410
0
710
540
485
514
680
452
470
518
644
707
457
504
514
536
543
493
471
555
590
442
535
568
482
498
558
463
570
518
526
485
640
517
452
535
650
544
512
523
454
508
549
471
493
618
525
477
490
536
562
460
454
575
617
484
508
481
586
541
428
538
495
579
460
541
504
539
527
512
479
510
568
2
550
578
547
472
486
472
565
535
456
494
604
514
483
478
519
560
515
498
555
548
544
483
510
519
533
490
505
534
542
502
447
477
616
475
507
510
520
656
456
481
532
690
397
477
504
223
580
130
519
550
796
638
425
579
763
472
483
553
519
497
473
539
692
550
495
483
559
545
452
447
528
525
552
475
534
552
529
456
471
537
515
496
491
88
254
526
234
555
519
613
535
512
526
557
511
551
404
247
517
236
563
518
663
146
575
436
595
629
472
543
565
495
462
471
558
578
516
485
557
618
380
535
494
448
787
607
420
630
585
429
478
450
605
514
500
522
550
486
451
507
503
729
467
470
573
560
489
464
416
503
580
474
500
552
608
426
466
545
600
474
504
496
639
501
515
433
698
493
621
565
668
675
494
551
401
624
450
473
544
481
772
488
823
808
601
164
544
479
405
622
181
677
491
571
495
493
669
582
520
415
451
582
522
447
535
508
577
0
509
486
691
449
481
492
582
521
476
517
586
542
432
539
603
617
431
441
637
500
506
506
506
524
583
459
444
539
645
429
536
446
610
503
427
478
591
533
485
506
466
728
527
483
482
591
483
321
553
679
561
512
539
508
542
384
477
512
549
535
452
502
625
568
449
525
413
654
548
452
497
638
475
469
482
550
535
469
555
453
595
535
414
546
630
488
326
564
641
514
454
595
487
581
434
509
499
578
490
480
584
595
498
503
540
489
591
450
491
529
519
536
481
466
683
506
382
497
561
737
458
461
529
648
572
469
492
571
610
456
456
545
547
487
511
538
584
583
478
536
540
553
481
458
530
614
491
470
464
552
512
499
505
622
552
432
585
498
596
470
581
512
527
517
498
465
582
533
452
533
539
537
567
470
447
578
520
379
546
469
664
489
516
555
576
448
506
440
551
536
469
495
531
587
391
597
481
557
504
498
465
564
479
474
463
672
509
0
596
506
535
484
466
456
575
601
415
492
532
680
397
503
466
613
452
481
439
628
625
417
494
528
582
445
492
594
609
479
440
468
675
483
501
515
604
546
407
434
507
620
622
431
485
694
475
440
481
555
591
474
496
481
581
405
542
554
583
534
470
473
571
536
499
511
489
628
471
445
502
519
535
531
482
556
614
451
468
577
619
425
433
698
568
521
531
500
569
590
394
487
554
676
0
553
535
697
556
438
710
564
801
92
699
480
450
496
495
501
591
598
397
455
593
596
425
479
486
522
480
533
482
595
749
417
440
668
555
513
541
503
571
474
466
462
597
525
451
521
554
576
486
455
677
508
539
481
446
555
520
482
504
539
573
400
567
553
570
498
413
547
674
511
522
529
635
562
371
530
510
580
527
476
484
651
492
477
515
528
564
421
527
572
601
0
536
84
564
529
699
502
590
518
420
468
537
563
441
507
481
610
475
460
467
613
672
0
585
401
573
699
502
743
667
543
480
474
552
566
483
455
479
600
456
584
470
721
686
642
488
717
615
672
502
534
650
485
463
532
172
554
138
808
592
775
486
733
542
752
495
483
520
0
555
506
586
550
89
319
1002
481
575
667
596
494
501
481
439
511
643
582
443
475
497
611
474
480
497
572
543
477
487
530
608
453
488
494
622
478
450
586
549
528
403
654
676
552
444
505
384
539
462
504
525
658
516
463
478
506
562
438
529
543
565
483
445
532
550
539
472
501
507
677
485
408
538
603
471
484
471
555
667
482
506
552
617
439
487
507
556
494
467
537
553
617
421
526
550
569
418
461
517
664
476
490
508
552
534
466
494
565
548
459
491
446
661
543
467
457
567
630
445
477
558
637
453
477
497
608
483
491
501
565
537
463
494
574
517
441
616
439
566
529
528
439
562
498
436
619
537
623
436
541
474
572
460
539
477
553
545
480
485
586
554
0
165
447
541
669
498
559
651
704
403
488
625
698
377
411
428
575
538
477
499
586
574
480
471
533
651
506
475
499
624
466
465
475
610
529
482
509
573
698
501
492
610
750
632
485
619
661
516
484
492
494
570
505
511
540
625
461
634
0
641
140
517
528
629
579
435
471
499
659
447
485
467
607
570
415
512
645
574
455
475
453
581
529
494
40
620
532
498
542
540
565
450
395
512
694
460
455
595
243
512
278
535
558
650
115
571
481
728
526
672
508
446
485
681
524
548
794
554
455
482
472
333
893
777
234
861
363
591
414
679
531
486
506
744
645
582
588
853
609
498
529
549
549
438
443
493
764
531
440
490
633
562
455
465
595
503
517
508
483
600
492
470
475
557
517
524
485
641
696
527
509
616
576
511
471
525
583
563
449
507
496
566
474
501
448
648
49
479
41
623
150
597
481
597
580
496
456
461
554
528
502
499
505
633
473
454
541
528
0
567
450
590
544
510
499
467
583
510
514
543
584
416
449
530
569
506
484
593
510
544
444
636
549
783
526
93
508
644
658
498
745
685
140
497
447
645
564
467
556
377
507
543
531
608
738
590
437
347
497
540
502
593
467
512
529
400
527
632
545
481
509
555
503
476
644
453
550
643
481
492
546
553
474
464
534
572
445
474
471
658
527
457
553
564
575
429
456
657
534
495
549
447
544
483
511
466
594
549
488
459
545
574
487
497
478
516
562
467
442
569
547
509
487
504
561
502
477
446
574
522
472
559
517
630
490
463
494
624
435
542
484
510
595
504
479
514
502
495
611
456
602
515
536
436
533
531
505
502
594
617
464
414
490
635
458
461
461
646
501
439
512
557
632
429
478
465
621
495
525
537
557
500
526
522
515
545
512
475
530
647
476
515
487
573
494
449
527
517
599
508
510
539
562
493
530
444
594
497
449
597
544
536
499
478
482
597
171
528
458
562
617
490
530
505
744
451
443
526
586
489
416
499
561
561
474
500
535
591
471
480
524
584
490
558
488
588
534
451
496
502
597
467
490
537
617
463
476
502
585
530
456
511
605
542
481
580
466
585
494
432
558
552
465
576
467
516
597
458
579
493
582
530
492
508
515
487
466
571
553
610
441
504
442
573
570
469
518
575
560
458
147
384
600
260
621
387
673
110
756
527
630
586
527
417
736
574
571
519
608
629
125
502
490
555
515
453
495
566
602
425
532
499
641
454
541
443
561
516
438
546
607
559
493
506
477
530
514
505
474
628
539
456
511
532
583
468
412
470
712
467
444
528
625
434
457
492
521
619
450
504
491
554
555
469
472
559
492
550
486
543
547
483
548
556
640
389
523
552
596
519
441
514
603
509
407
566
444
650
491
449
541
509
520
525
489
615
576
432
432
536
684
506
537
530
564
456
423
531
553
556
461
517
447
503
467
598
472
545
479
581
497
490
619
465
479
451
589
492
476
487
640
514
461
458
542
584
465
551
479
594
463
485
531
598
545
429
549
488
590
447
551
462
601
450
473
529
696
467
478
563
354
633
313
546
459
410
501
394
532
683
698
278
723
553
520
415
439
615
496
529
490
497
512
512
448
479
489
611
533
469
488
610
505
493
498
573
564
0
129
675
190
591
548
764
523
502
522
707
585
555
445
0
508
702
530
528
560
652
0
481
378
586
614
449
503
157
566
329
481
477
637
670
589
700
604
462
279
518
665
573
484
528
520
506
550
465
537
549
551
472
494
526
520
469
528
472
584
480
569
503
742
664
427
513
589
558
433
461
513
589
550
444
494
550
531
460
538
489
554
486
443
526
557
515
562
503
536
559
474
460
610
582
390
480
519
568
507
538
499
552
570
441
543
531
535
492
500
467
558
520
500
444
606
513
462
512
582
570
493
496
525
560
0
562
432
536
597
482
502
502
545
457
474
537
552
480
506
505
635
469
496
537
507
577
419
570
464
564
507
525
472
519
554
448
593
534
625
453
490
465
540
533
475
503
603
588
456
522
499
565
531
476
394
656
505
496
547
561
507
457
536
511
620
487
492
459
529
525
494
509
498
567
552
462
433
660
569
427
489
602
579
460
482
522
596
478
593
523
597
491
470
474
653
537
487
457
630
533
451
485
486
762
452
470
494
606
482
458
499
566
578
462
485
583
560
446
544
516
615
451
489
563
585
621
424
472
543
559
461
489
464
606
530
440
511
535
547
534
441
488
684
480
590
527
806
534
21
722
793
646
508
885
564
561
467
475
488
519
540
538
459
545
641
517
467
449
676
53
582
679
670
547
502
524
583
566
433
475
357
758
525
442
598
514
482
441
483
527
599
495
549
532
612
518
532
513
535
505
448
468
687
630
477
483
6
636
366
526
512
581
0
63
647
630
640
489
452
408
715
406
0
566
584
586
486
376
494
662
477
610
575
614
509
322
500
561
630
546
381
730
808
644
538
568
614
462
446
360
541
552
460
478
797
531
537
480
564
594
476
491
446
591
525
467
501
553
611
397
479
538
568
479
542
526
620
484
458
506
534
638
469
477
477
614
478
480
507
595
522
429
518
493
615
589
450
399
727
513
410
470
667
536
458
534
502
560
468
492
493
567
508
467
547
567
509
443
642
474
602
459
496
469
573
488
474
499
572
612
437
538
494
693
370
519
578
485
448
687
505
63
676
136
574
502
728
508
466
497
625
469
552
429
499
634
545
469
661
614
455
444
477
613
494
491
500
609
540
444
541
500
569
554
481
493
560
524
472
479
556
547
535
478
543
546
433
514
471
605
570
487
498
586
508
438
582
510
609
508
518
414
630
491
623
557
800
630
0
702
500
771
548
462
538
580
479
459
540
527
0
563
443
512
613
566
478
794
757
61
499
604
564
553
469
389
530
623
409
563
426
518
535
365
531
609
649
479
478
518
557
412
516
481
618
511
467
465
562
602
435
540
503
547
544
501
500
574
562
572
436
749
679
5
497
507
532
502
523
509
680
612
555
232
896
841
288
558
467
742
511
503
706
493
573
635
530
230
599
189
514
604
603
495
605
153
468
459
697
513
633
596
488
618
449
590
505
481
516
536
413
666
502
334
555
502
516
478
587
491
466
497
623
475
510
496
537
606
505
456
494
668
471
457
554
595
499
423
615
540
556
444
527
498
578
481
477
490
601
499
485
495
583
611
437
482
505
581
484
524
472
609
501
494
515
501
531
534
514
518
615
489
544
472
548
475
519
586
564
558
426
564
534
600
429
485
538
609
491
481
525
527
529
453
528
440
679
532
440
455
615
522
452
505
608
590
438
451
476
631
467
532
432
561
691
448
459
650
622
433
508
482
607
493
468
500
563
549
428
517
628
570
442
391
659
526
525
515
536
496
568
413
501
613
594
472
485
455
585
488
489
341
616
491
496
666
636
630
54
638
746
612
510
486
552
572
473
431
527
554
593
462
301
516
122
476
7
673
224
585
432
688
635
543
478
587
493
554
456
429
378
693
531
454
536
508
623
392
466
476
655
481
519
328
503
605
578
504
619
573
521
524
470
579
561
483
223
598
519
526
468
565
532
402
520
556
689
540
443
413
722
551
552
358
447
732
6
476
550
273
589
0
465
293
626
505
490
479
486
381
575
578
596
618
438
534
560
629
499
505
493
1023
117
782
661
78
578
549
565
508
721
541
587
499
444
433
762
41
905
516
740
492
568
517
540
626
495
661
502
353
423
94
566
530
648
594
513
408
452
490
616
489
488
504
532
504
558
557
499
523
485
502
574
521
449
518
473
468
600
466
515
618
543
459
424
495
199
503
484
489
607
565
493
452
559
540
469
514
514
608
446
569
477
536
484
507
530
533
565
469
490
501
631
422
342
544
54
520
0
529
536
529
477
517
698
700
528
517
624
509
442
473
26
603
573
348
445
922
832
589
577
556
566
451
418
40
629
631
596
709
161
1019
467
520
539
633
505
455
436
518
649
452
503
487
625
400
501
539
569
619
665
747
601
409
708
68
538
461
669
112
498
602
707
483
499
625
207
440
1
538
139
697
201
574
63
1022
508
466
566
657
491
458
477
547
396
541
521
523
546
521
394
375
643
444
483
562
581
489
450
446
553
734
476
634
568
0
532
508
682
780
450
586
783
558
505
546
166
636
518
488
542
521
620
661
460
547
507
513
475
583
607
559
483
627
472
580
466
497
558
571
483
510
496
558
609
463
533
407
623
607
447
574
623
514
476
499
527
597
449
539
465
583
506
473
478
640
488
509
568
531
578
605
510
639
323
9
742
529
810
570
688
221
538
578
555
544
487
652
585
506
442
558
599
380
507
390
648
456
481
441
738
465
446
512
583
499
462
490
530
580
503
480
445
622
538
479
707
586
548
404
664
525
575
471
486
461
595
489
475
511
537
496
504
631
488
603
494
498
476
573
549
153
550
28
629
0
887
575
335
549
0
579
698
577
740
480
893
633
695
537
273
622
476
454
478
607
456
493
504
521
518
399
546
580
547
463
535
488
16
571
500
504
604
577
463
451
493
632
468
467
520
570
483
485
482
579
571
464
539
278
821
722
517
701
624
85
753
0
687
264
591
697
576
617
702
547
404
644
567
542
274
719
1023
620
665
506
793
731
490
665
621
529
61
477
696
697
445
148
653
477
590
680
417
695
327
352
520
45
476
424
442
537
1023
555
734
69
685
469
173
485
1
542
370
626
551
840
596
678
452
491
489
510
548
559
453
511
499
475
698
566
478
88
377
102
871
578
228
720
656
11
675
672
460
575
554
559
408
424
471
556
590
435
545
382
570
507
493
481
608
466
392
597
604
541
377
170
599
545
651
554
668
563
511
479
676
516
631
488
500
510
586
551
464
685
634
354
530
0
600
533
431
650
495
596
569
698
0
626
235
602
564
639
544
629
273
573
565
587
518
479
632
509
497
504
513
550
522
557
507
563
485
560
495
505
547
509
444
561
568
495
462
517
671
487
523
475
119
571
436
500
622
559
503
496
498
609
477
502
492
558
471
505
522
506
771
458
480
491
612
440
465
508
722
490
633
687
726
516
466
538
563
512
542
440
488
683
514
452
697
570
560
460
131
550
625
695
452
544
662
532
462
465
546
590
444
508
541
659
469
423
1023
640
632
93
711
518
765
365
1
624
624
728
486
700
754
493
402
835
0
668
609
544
500
654
481
465
465
501
498
500
464
620
526
479
531
488
601
476
489
534
0
583
499
483
574
630
444
469
416
643
538
525
598
569
489
445
486
496
594
486
486
488
586
451
512
541
569
572
48
547
0
660
0
437
628
629
654
541
649
656
466
349
629
566
615
482
536
490
577
476
468
452
621
556
385
641
521
576
529
503
380
660
427
633
536
596
505
466
526
505
582
474
492
462
562
570
477
527
697
504
570
499
735
547
802
509
657
790
678
531
76
534
1023
433
564
692
683
491
418
351
567
532
490
489
44
525
435
541
570
615
448
366
505
580
473
516
521
514
562
438
571
495
619
456
465
59
626
624
496
493
595
608
399
463
516
569
519
531
465
566
557
463
439
671
523
467
478
564
631
377
512
536
583
545
475
487
501
621
9
562
0
698
0
909
474
1023
559
630
551
577
584
415
558
0
755
456
647
500
791
548
682
496
614
600
491
540
565
525
514
590
372
634
553
486
497
517
518
458
512
533
572
461
481
481
583
581
506
533
40
622
446
480
471
579
543
527
475
603
552
447
473
570
551
457
547
518
525
457
549
470
652
457
486
478
597
624
586
511
399
625
0
577
621
638
540
455
466
519
535
436
773
548
519
529
535
496
623
500
501
476
565
529
501
466
528
737
479
739
486
0
620
605
551
540
574
484
509
480
589
450
548
483
603
503
472
490
615
552
609
501
422
788
0
571
645
604
536
465
465
587
572
298
1023
676
523
663
329
628
588
852
473
581
273
678
452
486
602
558
482
508
525
516
482
432
511
626
542
442
484
515
618
425
503
190
620
515
454
586
517
600
436
476
515
562
498
487
447
617
540
428
532
542
569
475
508
474
610
529
489
498
571
569
452
505
518
547
511
481
499
649
519
485
471
557
484
629
519
635
614
499
477
481
530
477
467
503
582
519
479
498
547
598
466
450
496
678
444
529
550
627
491
482
490
521
568
450
500
464
616
520
468
502
568
548
463
504
528
634
450
445
482
597
453
526
534
634
560
444
470
527
558
425
524
534
567
525
495
462
718
523
416
574
507
665
411
490
489
608
498
459
500
612
531
469
501
535
597
476
719
456
617
460
513
693
539
498
480
534
516
578
462
447
535
568
472
486
509
577
535
464
516
510
633
438
509
483
562
504
469
486
595
629
439
676
662
257
497
0
1023
551
863
543
551
648
686
455
788
443
216
553
4
510
73
522
476
601
543
531
474
475
134
620
458
490
473
669
474
484
469
566
514
0
559
559
527
668
596
169
1023
172
584
290
678
551
393
486
523
500
476
835
0
676
226
588
522
476
603
426
500
493
667
450
606
488
537
503
482
531
645
636
400
41
1009
0
435
700
801
972
544
117
1023
499
540
724
668
468
509
404
438
532
704
453
224
586
764
677
513
518
528
554
457
532
506
567
736
317
678
558
481
618
539
520
742
455
503
452
464
628
463
547
552
660
588
5
580
77
590
565
733
657
479
429
456
505
546
553
417
583
703
290
503
62
639
559
545
246
558
570
399
509
502
626
479
453
465
685
503
453
542
522
546
493
473
471
709
509
684
516
547
540
507
505
561
554
466
476
531
627
476
455
547
550
483
491
535
534
563
468
532
470
689
452
456
513
601
511
450
549
571
551
446
502
511
495
471
600
455
543
657
486
498
509
659
505
466
471
558
490
506
502
558
558
479
549
514
558
449
507
256
601
769
490
696
657
674
492
0
640
748
476
713
548
541
478
511
502
555
543
433
4
546
759
491
737
506
34
479
471
637
690
553
629
476
461
550
431
472
465
550
490
674
540
591
533
457
525
620
539
462
492
376
651
494
442
532
591
500
425
487
514
600
661
557
435
625
541
552
429
551
536
425
539
507
601
483
484
485
593
501
506
475
641
495
439
527
493
572
462
555
486
554
559
468
459
620
490
488
530
518
572
485
475
453
613
497
472
476
597
659
420
469
571
615
467
490
466
619
464
476
500
554
612
437
461
495
588
485
497
522
632
477
476
479
486
536
495
493
534
580
503
507
413
575
598
594
865
695
503
743
597
732
607
634
558
401
563
8
675
495
748
619
228
456
616
654
694
705
503
505
494
405
446
533
538
516
503
479
600
486
493
448
579
630
428
502
580
713
434
503
430
678
592
442
487
590
485
459
509
541
558
456
515
497
624
426
501
535
534
537
422
490
529
716
465
533
486
649
479
434
458
623
514
466
499
534
556
443
48
507
608
467
554
591
518
485
443
471
594
579
466
522
484
569
486
475
490
698
496
410
464
671
603
379
540
458
554
593
385
559
643
524
467
494
471
500
444
541
523
543
453
698
404
662
505
498
425
490
622
480
523
509
567
488
486
463
594
551
454
487
566
625
425
416
661
599
425
540
487
546
542
462
423
554
673
453
482
492
603
523
461
56
666
524
445
553
454
676
498
468
485
567
453
475
450
551
603
474
572
527
626
441
470
471
535
541
529
500
574
65
479
0
584
149
556
481
692
567
540
500
527
562
537
576
505
571
620
490
490
481
554
458
503
532
547
540
415
536
467
517
488
567
431
582
736
488
459
562
530
519
529
559
540
454
461
465
578
526
464
523
577
534
486
547
521
715
470
433
518
606
501
472
472
530
519
517
409
635
648
433
454
496
598
476
470
488
579
590
435
524
473
624
391
579
416
607
657
483
314
697
502
504
506
504
695
378
449
486
733
493
404
483
699
476
444
553
536
554
484
501
476
579
515
389
537
633
531
475
492
508
688
556
455
453
714
492
412
510
547
510
475
501
515
604
496
470
472
536
777
475
649
626
725
466
604
526
361
413
411
200
1023
685
740
187
1023
595
805
533
721
737
580
537
633
570
644
551
451
450
683
468
699
829
636
200
610
17
495
566
369
440
662
1023
614
1023
613
561
58
585
444
485
580
457
452
508
784
445
502
651
653
355
1
789
656
61
1022
500
699
681
476
550
449
576
451
401
484
617
570
356
592
513
80
886
0
493
127
598
562
489
553
616
532
660
654
582
386
400
401
575
526
514
509
531
680
576
696
541
490
608
0
428
518
438
475
559
686
615
445
627
512
596
473
673
451
578
400
585
465
549
678
493
524
562
525
423
498
502
606
469
472
530
537
540
483
409
530
699
392
446
521
577
486
440
582
594
539
479
520
536
599
438
451
526
651
492
434
437
664
662
397
551
529
609
465
461
446
593
515
455
495
572
584
430
488
580
588
485
364
448
601
600
539
505
575
559
409
463
449
673
497
454
514
533
534
479
475
552
611
426
487
545
639
523
471
517
536
501
500
487
567
572
560
457
539
575
447
528
445
647
492
477
496
606
489
499
492
506
635
535
488
495
611
529
465
465
495
458
476
511
489
567
559
451
508
542
490
493
541
577
548
490
465
536
555
459
462
497
606
402
542
541
575
496
509
552
489
588
506
437
472
620
423
480
505
632
551
449
460
559
547
476
516
450
526
517
534
467
536
563
485
483
573
519
514
488
507
523
583
505
466
626
632
464
498
521
594
463
486
496
572
501
520
522
581
523
442
607
555
667
534
0
557
445
144
398
473
632
530
1002
528
507
593
471
488
302
592
614
410
631
716
472
0
676
314
355
472
473
669
629
862
502
518
529
556
286
405
479
642
489
1023
550
594
413
509
322
457
543
494
658
540
740
503
0
456
510
428
437
544
508
751
1023
448
540
521
473
189
336
638
556
680
594
692
557
36
480
304
468
383
513
582
699
894
458
606
531
496
274
360
454
658
664
1023
584
531
268
479
452
483
739
616
599
524
757
452
0
415
533
368
407
557
647
747
1023
510
527
457
522
618
641
693
688
676
612
417
529
0
508
369
533
487
244
119
985
545
494
469
564
497
624
622
507
733
460
710
534
534
555
84
496
792
599
476
564
482
579
483
0
988
626
501
547
569
663
594
486
489
466
694
1023
457
739
598
540
510
510
461
595
486
451
479
623
514
460
698
555
500
563
477
724
591
535
645
0
658
0
503
477
624
451
617
513
751
547
763
492
796
634
527
536
744
655
697
470
723
708
674
457
489
519
664
505
657
606
763
119
684
561
558
607
3
499
332
532
497
506
578
1023
612
499
587
526
500
317
316
539
354
500
528
598
490
237
337
523
437
1023
576
761
758
556
451
0
643
152
582
551
513
538
77
587
616
375
376
489
410
449
615
687
597
508
620
643
20
469
349
363
361
546
668
996
730
450
611
727
632
22
403
385
471
638
1023
603
643
424
417
289
415
472
731
582
758
638
449
0
334
471
484
442
589
642
702
1023
584
527
483
506
379
350
455
589
692
650
571
613
24
481
271
373
415
484
681
684
1010
459
502
438
545
368
334
561
699
606
1023
598
506
330
467
0
697
734
866
636
583
531
368
0
656
638
780
477
764
445
845
533
472
470
72
707
0
478
555
767
471
511
524
585
441
500
0
638
540
507
567
566
550
485
537
561
639
0
391
640
796
668
602
551
509
513
400
477
481
617
494
393
535
655
383
512
531
641
699
458
465
547
622
476
464
510
532
557
509
436
488
616
473
486
357
676
510
469
537
755
502
676
509
288
848
354
534
555
540
412
458
445
674
632
1023
574
581
389
442
370
243
576
652
630
630
652
573
0
491
452
429
382
504
529
670
1023
527
615
459
463
465
765
51
679
202
493
492
485
150
908
464
523
564
492
485
512
640
466
474
459
788
464
451
1012
593
163
484
532
622
57
590
0
878
0
418
478
479
649
567
0
495
459
413
380
477
564
771
1022
593
596
493
564
296
404
489
634
497
494
604
566
29
526
394
364
495
554
560
624
1023
441
521
437
552
386
331
515
757
622
1023
543
494
350
504
360
311
512
610
536
575
744
525
0
466
438
373
341
281
1023
723
632
489
481
213
737
0
446
782
650
456
554
681
662
383
499
505
906
488
874
504
782
643
511
548
408
455
405
431
639
613
699
1023
487
533
516
583
5
609
19
652
377
701
510
544
0
683
455
445
389
751
507
675
1023
534
397
49
620
0
471
805
403
664
562
581
620
410
377
489
365
542
458
506
746
783
659
610
0
592
2
528
488
788
591
956
529
492
345
520
566
1
699
78
1023
467
487
636
510
570
536
531
470
535
624
638
535
431
491
868
793
834
554
730
670
770
511
477
643
495
548
460
500
558
455
475
210
609
481
525
677
869
0
414
492
500
621
1023
590
685
686
510
435
414
528
480
320
651
585
522
492
637
628
195
430
417
1023
674
983
554
541
589
536
443
459
506
599
457
352
485
615
547
379
571
546
494
467
548
564
603
469
510
479
613
531
422
559
488
632
414
481
481
574
520
510
433
589
515
589
625
473
576
0
643
166
481
521
443
672
853
724
607
498
584
718
506
477
520
631
611
448
414
513
622
439
542
503
603
476
469
504
553
536
457
545
787
480
524
537
516
622
438
584
473
493
546
483
543
482
619
488
491
547
602
481
469
336
694
554
446
768
608
636
462
471
545
756
494
514
459
636
522
500
506
539
527
423
590
538
532
495
528
439
519
519
438
522
556
574
447
576
465
595
478
507
472
562
119
503
458
604
629
366
549
582
570
474
494
502
542
501
468
491
637
519
526
506
502
605
491
507
408
566
590
458
483
558
577
413
533
505
547
450
470
585
543
538
484
569
675
536
482
534
566
628
462
433
449
547
544
464
497
601
578
446
464
524
637
460
455
467
657
503
460
511
615
558
397
474
505
654
465
492
489
638
520
488
494
702
480
507
542
499
591
570
427
474
598
511
482
520
552
541
508
504
481
652
473
443
551
599
479
508
504
591
559
437
506
503
572
501
485
499
632
531
453
498
538
527
409
592
457
749
577
453
549
642
537
421
494
609
559
473
499
490
606
483
503
466
644
616
429
446
630
544
393
496
587
541
519
476
473
591
490
471
487
556
671
429
480
459
584
537
498
492
577
565
417
491
567
592
441
487
472
603
449
481
573
526
538
546
505
526
517
468
477
473
638
465
483
536
599
480
479
452
483
495
475
599
425
641
508
496
462
549
126
521
498
579
640
483
521
388
651
512
473
497
661
485
438
560
534
592
479
526
438
575
573
455
508
587
442
561
457
507
642
496
479
631
572
656
525
721
600
517
477
746
621
398
594
600
381
609
728
597
443
233
393
734
496
608
698
552
514
354
498
493
481
638
578
567
356
575
607
579
472
527
425
766
576
694
512
317
500
551
437
648
200
631
1023
421
491
611
695
589
474
468
503
636
518
679
549
655
488
579
550
491
481
526
36
492
557
487
577
474
503
369
551
556
478
507
531
563
463
505
501
619
560
411
467
879
541
552
514
573
539
438
498
504
560
444
504
616
559
507
427
542
521
487
529
468
639
548
591
467
597
598
894
547
494
289
983
394
368
644
606
1023
605
565
735
130
456
540
416
611
815
602
488
620
492
541
318
539
618
468
598
700
623
465
439
352
531
557
583
333
459
396
1023
1023
697
715
531
447
438
467
404
550
523
646
429
468
499
525
132
450
479
592
546
507
491
466
545
552
493
469
513
669
424
528
546
639
509
470
467
651
470
477
459
659
530
426
503
524
644
440
501
607
508
622
553
451
574
556
441
476
677
629
494
492
503
446
615
512
483
529
593
543
492
371
652
508
530
476
528
509
518
506
500
627
435
492
547
531
452
587
480
630
580
430
510
564
561
440
538
503
584
544
530
465
531
563
408
498
694
512
487
579
454
577
495
417
521
608
491
483
514
610
548
433
555
485
572
487
486
520
508
507
538
485
552
613
450
475
464
698
499
441
512
765
548
412
548
613
600
469
476
422
647
506
530
505
624
509
461
456
488
637
502
489
480
655
466
464
471
633
523
461
525
576
478
437
645
462
636
499
513
453
525
540
486
459
609
612
473
518
504
551
477
476
470
610
479
501
574
486
563
509
472
472
607
499
493
529
483
553
545
507
494
731
428
491
485
598
466
474
501
571
541
459
543
483
90
395
412
485
645
731
504
602
582
0
549
412
598
633
421
506
460
571
494
435
189
748
0
441
359
760
38
726
572
507
244
531
388
280
560
497
433
493
852
697
613
794
575
1
408
497
429
756
793
667
501
522
511
460
394
955
638
610
562
553
586
442
409
612
528
541
532
520
456
565
552
478
468
544
638
415
480
564
599
445
510
464
631
452
0
172
602
46
593
486
739
538
406
441
619
463
666
545
554
511
506
434
513
502
156
601
486
427
554
581
521
456
534
553
450
507
536
507
527
482
456
561
484
476
523
804
537
480
554
555
558
474
459
445
632
496
458
607
557
531
451
498
539
608
458
492
408
682
444
496
560
573
507
397
522
501
604
464
468
504
638
544
462
583
600
549
489
575
316
622
692
606
625
652
531
436
627
563
483
512
635
659
382
573
485
505
336
538
485
502
468
630
484
474
501
596
500
456
482
550
469
629
505
528
632
465
445
571
92
502
560
522
506
503
500
498
521
640
444
492
572
472
540
542
515
554
508
482
517
515
614
460
526
474
579
456
452
511
620
531
448
535
552
588
446
516
500
547
514
487
658
499
449
442
493
630
826
534
620
304
553
296
374
583
822
726
656
568
571
548
392
580
607
628
487
478
502
505
502
590
474
494
621
504
485
450
555
464
543
514
502
590
520
734
514
656
516
491
641
616
475
526
562
171
258
518
547
584
697
417
453
346
470
463
625
458
637
527
473
530
505
351
527
462
675
688
649
586
538
627
546
469
650
612
610
446
505
552
630
497
480
492
515
499
486
482
528
635
459
493
494
619
503
475
477
580
482
493
542
604
619
436
505
503
572
452
472
544
627
492
461
492
582
620
410
501
526
603
457
458
528
605
507
421
554
554
629
465
514
486
570
476
568
540
183
611
0
660
462
925
615
544
678
554
498
511
497
580
544
457
492
486
566
522
482
466
140
525
495
493
702
549
456
493
521
553
456
543
213
641
491
582
535
217
530
0
580
1
597
486
461
440
647
522
497
668
511
460
628
432
528
583
647
508
616
635
405
463
599
517
472
540
637
509
546
441
435
547
508
549
527
490
626
538
476
478
516
646
452
593
496
560
499
583
543
599
577
479
764
482
514
476
549
447
538
543
504
422
734
318
24
741
20
746
280
490
451
491
510
459
507
744
1003
496
337
638
40
461
431
478
410
545
477
523
526
549
506
487
509
620
426
497
500
567
545
468
549
588
576
441
563
635
550
493
454
546
621
525
480
454
592
567
413
508
608
578
436
502
490
572
577
491
441
671
588
450
494
537
553
532
474
483
528
591
470
466
538
629
455
473
471
585
457
570
719
623
528
875
556
799
552
483
482
545
637
407
475
471
590
538
382
501
592
548
510
498
543
604
462
492
486
531
509
484
499
508
602
453
495
514
620
445
537
466
570
538
477
488
503
614
468
515
545
581
504
443
449
653
567
415
526
572
572
448
474
533
673
441
442
521
685
486
644
515
445
612
0
559
508
595
556
486
456
582
524
495
579
547
631
490
508
504
550
482
485
440
618
556
446
499
561
550
508
498
511
548
539
599
497
628
505
495
507
521
547
462
504
530
577
492
497
460
580
490
441
585
515
594
453
506
532
555
476
498
503
587
537
545
607
146
687
463
562
493
595
459
520
468
31
574
467
495
534
568
494
499
508
604
482
480
488
600
533
459
520
618
557
458
514
658
827
663
497
731
654
699
496
364
562
604
480
524
479
604
506
476
515
577
481
513
634
509
700
468
620
434
597
467
447
525
589
498
452
570
543
550
463
505
480
601
452
578
495
560
470
475
583
544
592
410
518
499
548
532
485
557
558
556
467
454
569
654
435
510
479
558
505
454
504
629
516
450
490
578
518
417
574
543
544
473
524
470
0
685
471
494
579
609
401
489
495
589
491
547
501
526
519
455
538
536
576
463
453
509
532
488
540
461
644
488
539
494
470
587
418
463
523
621
574
492
778
593
330
528
351
799
493
489
594
479
672
402
475
505
547
555
453
565
479
513
473
533
437
581
552
506
516
596
587
189
610
216
675
404
699
552
770
536
678
528
549
481
453
527
564
587
483
484
482
572
530
501
469
548
614
429
488
540
644
424
440
475
660
400
502
543
357
583
490
480
498
597
468
488
446
562
594
479
499
558
543
486
463
381
579
719
428
505
629
539
427
459
533
546
528
494
527
499
519
516
501
560
552
424
490
671
544
444
464
598
511
449
512
480
572
515
484
484
529
656
478
461
613
532
589
499
483
605
455
558
502
521
581
497
483
550
542
460
506
470
615
556
466
536
545
506
431
532
521
595
401
538
493
567
560
483
478
625
500
457
488
541
595
472
487
471
651
478
421
505
669
538
404
543
567
464
511
491
445
534
587
562
442
557
619
416
495
490
583
474
440
463
686
487
499
612
593
454
410
594
507
558
480
475
508
558
537
475
530
543
539
470
583
518
709
439
397
452
702
458
462
536
595
526
392
501
628
605
475
479
554
590
515
503
482
620
513
506
507
534
609
404
538
493
574
531
492
485
563
544
474
537
474
631
499
463
456
623
485
438
604
555
575
531
479
568
535
483
460
471
587
493
480
486
576
565
482
464
515
665
475
434
492
669
419
477
545
546
582
566
541
609
628
521
531
582
444
464
406
683
748
982
526
536
510
489
444
460
486
558
563
485
490
561
595
468
569
552
559
504
481
555
549
470
508
504
522
646
446
503
482
565
457
486
519
559
536
505
499
508
559
515
463
523
612
435
477
519
662
467
505
538
529
547
472
506
494
612
489
480
438
589
607
450
505
569
569
447
461
482
699
470
534
493
510
515
487
528
78
613
436
495
528
626
558
497
504
601
491
404
551
504
633
454
487
487
554
477
538
508
525
609
452
504
480
633
458
510
472
617
538
506
434
602
493
453
529
570
697
440
516
491
573
392
463
577
610
525
467
485
519
538
461
513
508
625
491
488
472
619
497
423
609
504
569
474
421
501
668
407
554
585
556
500
455
506
511
593
387
557
541
675
613
630
481
742
621
138
605
585
691
510
525
4
741
501
401
598
564
655
379
460
204
595
480
474
458
626
477
64
491
252
592
399
823
499
531
400
618
461
571
619
470
589
507
586
418
503
556
657
445
458
459
604
512
491
494
547
562
460
454
546
698
444
619
522
607
494
512
422
556
527
462
476
542
698
390
470
480
558
513
521
465
559
577
538
542
550
584
450
525
507
547
490
486
486
603
507
425
504
568
576
458
477
501
569
512
544
493
514
542
562
491
416
699
500
412
458
629
501
452
473
563
523
442
471
523
602
512
544
0
690
485
781
524
614
529
465
594
532
566
413
795
491
649
615
339
839
567
510
513
570
570
529
438
133
479
756
635
811
554
576
540
483
493
554
607
439
695
462
572
522
0
578
245
679
451
0
594
676
491
435
509
551
486
474
540
609
472
629
618
427
645
559
466
407
614
472
448
539
583
503
484
530
501
644
467
508
550
480
574
470
519
604
607
442
509
535
553
471
445
483
646
526
717
528
795
601
611
576
0
620
509
532
510
586
430
0
580
185
1023
521
641
516
698
504
460
219
710
499
558
698
912
494
678
570
556
628
422
477
498
558
485
549
501
559
746
415
94
651
0
1016
702
501
675
552
5
509
135
913
507
722
615
712
451
455
511
667
449
475
561
513
552
549
492
594
546
485
550
476
580
558
460
445
655
504
459
481
558
604
450
418
499
676
488
454
557
572
503
496
517
536
568
433
436
503
608
512
503
523
590
535
461
504
0
643
499
477
448
665
503
420
589
549
537
444
629
467
626
434
518
485
545
499
481
485
565
608
480
496
547
618
459
466
491
734
499
576
545
648
795
698
547
688
629
635
788
480
567
561
524
476
523
539
501
450
443
731
521
407
483
698
513
375
453
583
573
624
544
491
602
291
594
446
717
536
837
550
629
491
565
514
498
539
543
403
500
636
588
0
514
496
702
600
680
619
699
815
543
443
600
558
583
454
589
650
364
569
59
575
462
490
481
629
435
486
554
556
546
501
495
558
607
468
467
551
598
502
455
572
583
532
477
491
525
626
478
516
533
593
497
503
390
571
551
509
460
557
611
361
764
0
598
508
630
527
662
740
522
729
561
615
467
372
533
470
531
130
579
278
677
598
424
782
547
776
668
91
750
536
271
492
709
617
541
556
568
530
441
428
464
556
653
443
487
617
550
564
465
527
565
474
500
458
657
491
394
517
578
555
509
541
570
597
398
501
0
591
526
614
593
306
776
462
785
575
624
481
502
479
609
475
455
618
507
596
404
526
586
574
455
440
479
628
496
477
558
548
540
471
510
521
529
472
784
514
539
473
491
527
587
511
482
533
489
593
414
450
552
554
519
508
494
524
546
484
501
481
610
508
474
488
681
592
633
525
319
618
538
607
649
519
617
518
641
598
370
493
833
845
1023
610
549
801
509
474
485
752
572
550
529
464
504
537
455
529
0
602
463
567
485
627
515
432
521
301
382
480
85
1005
142
533
966
525
559
506
0
628
318
674
482
543
644
658
780
448
871
246
648
829
239
656
559
76
661
760
596
321
669
0
707
503
371
520
698
728
542
887
635
510
420
423
569
598
476
427
539
602
578
481
536
539
574
509
486
487
590
505
460
516
585
552
498
492
511
559
551
496
536
587
507
523
507
465
619
534
487
509
663
463
466
488
698
507
621
599
739
606
699
553
0
605
429
1014
0
842
566
591
472
807
576
517
500
670
587
474
478
554
597
496
472
538
553
577
483
489
512
580
530
470
464
665
528
440
526
541
618
435
512
533
592
496
665
516
571
527
443
450
697
529
453
511
493
610
508
458
510
567
498
46
583
382
680
581
602
510
716
439
46
569
727
483
760
540
293
655
441
561
475
609
435
460
532
530
620
511
488
590
594
476
471
589
545
479
494
496
538
505
451
525
558
640
416
481
539
593
462
459
527
535
539
531
526
615
553
422
489
489
642
476
517
530
556
526
480
479
518
764
447
697
536
168
767
612
14
787
691
848
506
545
631
5
844
509
692
398
753
0
639
0
555
130
926
531
446
537
501
570
1001
515
710
598
949
499
240
610
737
606
244
564
697
789
488
524
734
610
202
527
551
1023
224
610
563
677
744
63
645
591
614
689
545
539
764
465
123
1023
702
503
1001
837
670
542
586
519
745
589
646
516
0
717
307
894
548
710
488
356
674
675
584
0
509
780
226
535
503
148
742
0
482
0
622
603
278
500
781
72
718
556
13
555
339
472
248
938
1023
541
0
427
60
575
359
676
680
542
0
544
275
562
476
0
466
631
957
0
722
56
631
0
459
449
722
643
481
0
679
342
491
23
597
0
511
80
638
603
298
581
791
688
336
622
5
683
41
562
61
323
686
444
537
659
574
677
521
583
659
221
681
499
524
799
472
102
167
744
615
546
847
693
525
426
475
520
567
464
470
425
645
444
618
756
699
503
227
578
749
665
734
579
508
629
448
516
493
600
531
444
448
525
566
495
501
485
597
404
743
509
526
585
505
74
743
699
452
0
462
265
680
672
353
698
534
0
542
357
688
612
698
550
355
626
481
505
729
546
580
571
700
736
657
176
539
176
523
451
479
505
1023
787
602
698
869
392
166
494
274
607
459
0
1023
728
176
580
523
1023
510
484
0
693
639
509
655
1023
628
697
435
200
806
443
277
590
280
515
502
555
595
562
0
642
510
426
503
744
666
660
647
505
698
936
823
492
658
593
755
502
83
450
326
250
843
592
809
582
605
530
698
623
660
496
757
725
295
500
0
719
26
509
173
518
686
3
525
630
649
697
483
4
637
0
164
528
405
748
506
548
513
798
537
452
469
698
602
176
646
774
229
550
525
670
606
259
514
0
584
0
527
159
643
587
275
560
1
678
768
525
1
1023
456
0
669
556
817
467
1023
489
686
556
487
459
495
479
488
435
651
517
468
499
479
682
468
470
514
593
520
433
8
658
766
495
0
667
207
495
724
471
626
506
122
655
384
1023
548
784
528
820
646
463
501
679
532
755
540
910
570
936
837
473
779
429
527
0
703
0
445
292
646
557
498
878
510
588
592
563
654
562
697
456
663
580
855
661
495
539
622
852
587
587
622
137
650
451
628
775
613
801
0
702
552
0
540
0
1023
23
549
473
795
508
591
459
1023
37
561
525
698
516
642
509
712
640
619
531
574
687
407
457
495
587
486
1
632
459
531
348
630
719
1023
476
813
42
555
0
518
179
693
501
277
436
549
589
588
613
555
648
455
602
488
785
629
702
566
855
574
534
565
502
540
506
366
570
439
886
499
275
654
575
377
518
49
653
0
512
113
689
535
480
528
466
543
512
488
489
596
554
521
549
478
744
477
168
261
689
568
630
588
560
532
139
459
516
803
485
610
495
1023
457
70
595
680
513
650
526
820
547
632
548
20
685
156
945
555
739
558
820
511
680
595
0
590
52
738
155
663
17
696
0
598
160
369
663
497
482
633
638
788
425
771
828
563
255
618
570
697
573
523
508
1023
611
106
636
656
513
350
1023
719
757
731
573
532
630
258
452
0
688
509
547
560
542
620
444
458
525
575
505
502
467
542
556
424
511
581
656
463
36
287
355
241
633
679
696
676
791
519
682
572
531
505
572
640
320
474
65
599
113
571
481
701
552
421
488
491
639
578
531
605
563
383
525
589
546
657
464
545
442
627
463
469
593
583
533
694
529
664
588
527
654
491
621
462
451
0
498
539
492
423
1023
607
530
467
361
675
346
486
45
581
0
504
436
792
698
496
356
508
682
264
575
595
581
496
446
475
576
537
385
294
776
605
396
437
92
533
34
575
406
385
699
448
647
389
674
326
523
518
566
479
593
309
868
698
590
558
565
598
336
390
540
638
537
545
521
493
655
410
506
645
603
590
493
698
575
460
424
697
502
666
550
780
558
558
