648
452
515
546
591
520
421
484
564
595
463
514
509
641
453
453
545
678
488
486
546
545
621
421
500
477
638
475
466
555
623
484
453
518
564
626
443
466
514
665
509
479
448
610
525
454
499
533
659
434
486
514
591
472
471
442
635
511
421
488
650
710
422
515
522
623
401
426
530
670
524
473
525
529
622
428
456
544
674
431
469
466
670
533
366
518
611
570
396
542
489
598
547
465
520
606
490
504
485
520
657
448
517
553
552
474
493
465
592
550
448
476
529
576
358
499
408
691
450
426
526
657
532
474
514
570
537
391
502
479
625
549
478
500
571
517
447
535
530
588
406
584
482
572
460
478
562
563
517
488
493
517
610
446
459
490
649
456
492
537
575
522
478
504
508
609
477
447
534
582
408
469
587
626
509
451
498
586
505
436
497
522
585
505
458
508
602
514
469
507
515
620
484
486
495
642
470
453
514
612
498
482
497
523
547
530
551
479
599
520
462
425
618
572
469
489
569
664
397
447
488
543
555
465
598
658
569
460
459
487
571
432
475
445
654
538
477
521
633
515
390
628
558
613
499
494
510
598
450
479
515
679
520
334
514
580
571
436
567
490
676
527
414
500
605
549
449
507
595
542
456
476
472
601
534
483
525
561
542
477
481
529
612
463
547
456
626
485
478
530
530
589
414
455
585
621
496
540
525
560
556
462
519
570
522
563
469
516
692
414
553
492
593
549
413
602
613
615
503
411
563
451
537
404
529
634
508
432
666
540
533
555
383
523
604
422
490
423
664
502
417
542
550
521
465
511
686
595
424
455
514
525
485
329
591
638
474
488
489
501
608
459
488
464
621
516
534
388
608
495
465
512
515
707
490
408
588
476
521
446
498
666
544
449
501
542
516
496
532
466
576
490
464
521
563
653
420
420
544
605
441
486
533
614
450
491
532
545
546
461
628
470
604
504
505
486
518
500
494
513
580
615
484
490
512
571
490
530
520
572
508
492
466
558
574
462
510
515
629
467
466
497
549
548
566
487
551
638
478
428
493
615
424
491
559
552
507
483
495
541
551
409
511
501
601
461
465
498
617
512
381
443
644
557
485
378
542
626
405
472
515
526
499
564
497
544
535
439
534
477
646
499
493
491
622
495
414
585
569
576
445
422
467
495
580
487
558
612
503
471
539
537
565
490
474
505
650
474
406
498
608
487
484
509
622
507
410
483
463
697
439
490
513
556
525
498
477
548
597
463
523
437
633
484
455
537
620
504
456
558
527
604
405
540
507
523
538
352
569
570
556
446
538
566
561
443
469
509
633
573
448
527
588
492
476
403
560
603
435
469
480
548
462
447
496
627
499
537
490
517
589
464
460
558
573
531
557
455
570
535
455
487
546
596
447
552
517
598
483
483
515
612
537
453
514
504
606
479
462
496
632
497
439
482
654
510
420
522
558
588
449
482
479
612
475
473
539
483
625
560
460
562
665
466
398
481
546
485
493
528
565
532
474
497
502
624
459
443
524
700
475
469
546
578
483
464
507
526
625
443
477
519
540
578
443
474
588
588
490
348
568
601
465
447
451
669
542
474
484
579
576
440
499
593
581
450
473
464
512
610
521
536
638
522
451
494
492
605
484
476
502
611
543
445
524
628
495
471
501
569
686
468
487
463
569
525
428
506
652
551
420
462
518
643
549
460
482
621
499
456
510
583
521
490
516
498
557
455
506
470
594
489
485
487
554
638
426
551
523
519
510
500
465
642
552
455
460
552
543
459
513
575
616
436
464
452
574
609
417
530
601
569
489
468
520
602
473
459
495
615
473
515
480
581
535
452
507
542
473
505
504
485
581
516
466
514
638
523
474
499
524
561
481
487
528
546
494
485
487
481
656
480
508
530
571
470
444
460
633
412
497
444
563
593
440
529
512
602
487
480
490
570
498
583
433
543
621
463
520
484
662
484
464
516
571
485
522
497
574
596
471
483
517
647
489
445
528
553
559
564
578
539
653
506
461
489
571
478
548
402
592
511
495
520
551
496
446
417
484
665
465
521
447
555
453
461
506
540
613
482
476
501
651
439
456
526
699
389
527
565
563
565
423
501
526
604
441
558
503
601
553
461
515
617
513
387
629
386
592
473
577
506
576
566
473
542
535
609
467
485
578
580
450
490
531
532
501
484
467
547
568
464
587
498
617
483
504
484
546
493
491
548
554
605
464
503
474
664
451
458
543
630
483
417
544
611
543
494
468
484
542
530
462
515
635
533
462
479
577
578
497
500
480
585
476
429
495
661
433
491
508
490
661
447
466
477
576
568
489
521
590
501
456
491
542
630
477
503
433
545
672
454
489
619
510
464
423
554
626
497
545
480
593
494
472
475
596
504
482
502
627
553
420
565
451
567
511
512
540
595
453
494
496
514
574
423
448
480
625
518
428
536
581
483
493
571
524
602
420
408
452
545
462
477
505
589
599
456
551
467
600
458
368
487
538
542
480
518
641
587
345
536
546
553
352
457
472
584
550
473
532
588
429
462
504
532
496
400
470
477
605
544
347
498
534
526
479
560
559
597
451
473
507
490
551
498
491
605
560
424
472
542
616
336
570
494
550
629
417
527
509
609
457
521
574
522
434
469
507
592
515
482
532
565
559
394
491
592
553
454
586
470
550
559
464
374
618
471
460
407
563
585
520
432
488
617
459
505
489
584
569
475
482
515
601
443
470
468
556
471
443
532
655
472
473
596
480
524
507
448
454
653
540
469
485
576
532
459
535
510
610
530
482
483
585
499
454
510
659
597
494
512
469
601
498
472
532
590
519
473
459
607
630
442
509
517
599
439
479
507
610
528
494
483
558
537
459
459
498
745
527
476
534
580
488
484
458
535
636
475
481
539
609
417
441
564
680
495
496
507
604
504
468
659
521
607
515
459
526
542
509
467
447
616
515
438
459
490
592
522
502
533
629
530
427
518
600
581
452
505
548
650
440
319
500
540
506
491
486
566
579
499
489
465
647
464
488
491
553
568
444
548
596
588
449
469
513
612
449
500
495
575
497
399
594
471
621
345
476
608
582
480
570
588
550
590
387
511
672
689
439
444
500
598
424
508
621
689
524
473
521
514
627
378
544
512
618
468
425
590
566
476
441
472
621
443
384
452
574
466
537
575
533
621
505
413
555
699
560
482
512
491
597
541
470
544
597
593
399
566
546
527
452
476
509
547
472
424
497
612
527
461
504
547
571
455
452
463
664
455
524
465
674
532
481
464
530
669
474
492
554
575
483
548
462
583
525
450
453
636
562
471
433
544
680
467
536
522
576
578
422
487
561
524
474
475
595
623
529
528
477
501
533
440
507
609
536
437
442
452
619
520
508
622
597
507
385
513
507
697
393
504
529
575
526
553
540
556
484
518
509
544
553
460
527
496
559
578
474
522
563
544
482
482
486
616
479
587
471
577
540
309
533
543
547
488
530
532
605
474
477
481
602
495
461
507
629
508
442
525
571
576
459
515
488
539
546
542
425
673
594
437
501
530
578
476
505
572
539
498
489
571
520
529
446
484
525
484
444
536
435
562
529
500
514
591
531
437
554
537
546
531
537
475
595
519
546
552
532
563
517
496
518
570
468
467
541
561
541
471
484
614
505
479
505
525
599
461
569
608
479
637
485
529
584
497
442
476
465
600
497
508
530
584
528
464
504
592
551
483
554
524
598
502
527
503
577
451
487
617
509
568
528
473
488
604
508
459
542
667
507
474
516
578
617
424
483
451
507
527
465
546
612
492
448
629
527
521
484
528
505
458
476
436
538
631
509
457
490
530
559
550
494
523
734
428
401
568
590
520
477
535
573
549
463
537
502
623
491
478
474
587
471
429
548
645
519
523
524
508
630
459
471
491
591
478
491
573
545
599
458
416
566
701
458
501
530
584
449
419
579
565
622
464
471
476
666
434
512
500
633
510
419
533
530
609
515
482
527
590
450
505
463
621
502
475
539
532
567
437
514
534
592
488
532
488
580
498
512
485
591
634
421
470
539
652
394
486
561
510
533
487
507
570
592
446
431
432
639
498
468
563
573
514
378
507
548
579
438
556
460
609
479
480
546
541
556
459
519
546
565
469
489
551
602
484
484
467
558
566
477
550
572
569
461
480
476
620
520
508
481
575
526
508
502
483
646
505
491
497
553
528
488
499
598
576
449
455
523
565
385
508
521
629
471
464
529
556
527
457
511
588
530
470
457
465
751
427
480
543
581
534
416
470
597
618
400
475
466
665
490
485
449
664
488
509
504
553
595
485
466
486
568
560
480
521
563
512
475
510
549
610
465
439
498
702
507
441
552
629
621
400
490
561
589
471
455
493
606
543
471
505
572
544
465
499
522
650
479
475
505
639
511
465
574
539
583
460
479
533
562
448
505
485
605
509
450
520
609
599
424
522
672
569
430
544
509
541
558
474
499
539
582
458
508
529
567
482
533
473
615
548
428
530
561
558
479
510
539
556
449
501
539
552
545
507
546
567
531
491
439
567
664
465
447
478
643
522
442
524
618
557
459
507
562
562
456
497
447
578
582
459
507
594
556
426
538
510
667
501
444
529
592
491
485
535
562
552
464
466
574
625
453
487
386
661
510
396
570
675
563
382
483
590
609
491
490
460
619
540
436
571
616
530
456
513
496
589
470
438
524
591
523
464
532
563
590
378
468
589
718
406
534
505
569
505
401
495
639
600
459
512
503
653
444
469
499
635
484
461
532
574
534
513
514
506
555
444
591
490
563
532
548
440
566
632
487
506
518
614
433
467
504
645
530
470
495
594
556
434
462
567
592
463
492
461
594
483
453
523
571
576
494
559
480
548
458
483
489
584
534
416
510
614
635
405
526
589
592
424
499
501
607
525
482
498
591
533
496
494
422
490
941
900
216
986
307
0
1023
0
618
0
566
332
730
417
583
488
784
585
468
673
0
808
287
554
630
769
478
650
509
548
562
485
499
550
537
393
656
525
569
505
505
476
572
500
465
499
699
583
396
594
530
517
474
568
488
596
545
472
496
529
648
389
499
508
617
491
444
570
608
530
441
547
577
604
440
493
517
651
575
431
547
603
512
403
510
582
572
209
541
537
585
656
482
634
600
477
427
538
609
482
447
653
478
569
546
481
492
572
467
462
515
593
564
472
517
507
532
563
500
505
649
511
430
478
563
564
530
499
578
679
486
457
529
667
530
431
612
539
586
458
473
624
544
483
471
496
541
532
478
502
670
621
447
464
531
566
544
474
494
628
576
421
500
567
576
453
493
497
577
553
448
524
651
530
388
504
593
529
469
511
489
524
659
503
480
620
565
480
463
536
530
460
532
509
639
487
507
482
591
598
440
495
594
591
475
512
491
622
537
467
513
553
481
465
544
593
615
506
420
554
634
516
494
675
595
650
454
596
684
552
462
517
439
671
579
411
543
677
513
451
498
531
614
494
431
585
580
372
556
345
483
774
230
501
616
630
476
410
472
557
543
495
507
550
526
464
523
486
650
485
460
491
591
471
533
545
555
616
490
490
482
698
453
543
607
569
501
503
420
646
636
404
524
590
613
271
490
493
588
139
546
272
607
481
514
497
600
555
498
494
444
503
550
460
509
469
692
617
605
547
543
576
500
415
498
648
476
668
500
635
658
420
556
548
571
513
496
489
567
443
554
481
644
690
588
531
0
615
220
491
493
692
530
474
555
535
559
400
475
464
841
468
498
506
610
502
452
494
550
573
470
441
588
542
492
439
539
668
698
490
537
698
741
531
510
493
749
483
492
500
545
503
164
609
586
498
643
464
521
594
456
533
511
568
514
462
486
698
613
455
518
543
627
646
480
497
617
506
473
527
648
521
483
502
517
648
381
458
197
775
474
485
506
642
674
284
498
894
797
272
630
684
570
65
524
0
577
626
451
579
615
724
583
482
498
692
485
438
537
477
628
472
548
1023
515
818
558
748
527
495
386
489
407
699
382
461
622
731
439
431
218
521
525
483
507
595
631
376
467
571
561
507
514
510
556
545
74
768
581
588
408
592
592
513
463
0
1023
281
422
445
466
537
632
500
657
545
537
511
377
550
671
508
488
466
541
626
415
548
504
657
632
412
499
964
692
606
567
656
577
0
483
374
700
567
501
475
487
533
506
463
541
662
478
403
459
637
480
513
476
679
557
397
533
510
600
450
417
571
569
585
698
533
588
858
447
666
677
562
416
457
485
497
439
0
694
544
483
473
562
482
654
395
427
565
568
493
497
501
585
517
122
545
498
599
481
598
458
595
473
536
476
620
542
429
496
561
519
505
527
518
522
474
490
497
644
493
497
496
467
578
549
472
510
623
428
472
601
649
672
450
98
753
786
391
486
43
744
0
464
646
559
543
490
456
535
588
357
660
471
532
618
497
491
654
575
390
513
869
593
449
564
489
772
484
541
538
620
493
448
482
623
501
577
378
519
597
476
473
544
634
536
483
497
525
588
446
544
426
393
577
0
583
221
1023
231
37
698
736
472
599
437
518
749
486
550
575
836
525
454
537
682
477
409
673
412
603
0
658
337
649
478
727
549
591
493
566
481
533
537
0
698
633
601
471
471
592
683
436
473
520
552
524
542
506
549
507
520
551
551
679
0
407
1023
529
700
665
640
646
488
364
542
674
618
93
597
456
572
552
570
649
553
492
421
543
636
536
0
753
494
434
593
0
662
451
560
497
544
533
585
496
462
447
548
590
394
464
644
551
65
588
586
578
484
469
498
514
548
512
464
616
594
476
492
545
619
476
476
437
605
534
454
660
546
564
478
524
486
660
472
506
511
452
528
0
587
338
653
501
452
420
886
566
434
501
712
507
359
520
641
250
444
594
491
664
585
579
413
394
488
688
443
685
578
470
417
471
642
490
512
502
551
537
477
523
500
584
536
514
627
594
451
579
427
557
524
485
508
536
552
508
466
536
572
566
414
471
715
523
452
487
527
639
442
501
592
607
356
520
0
663
74
698
596
669
650
488
559
319
610
493
488
489
622
659
495
546
627
436
530
471
573
725
303
544
7
608
0
527
534
588
557
454
497
513
728
468
437
472
613
549
420
549
569
561
496
470
460
680
452
487
520
581
473
481
500
738
629
472
499
546
534
525
510
418
626
570
479
651
524
847
456
0
555
628
508
472
596
606
0
531
654
500
963
475
470
522
720
486
469
455
655
486
447
550
656
549
0
550
464
628
451
514
534
693
505
370
509
530
621
392
528
503
678
467
492
512
548
504
468
546
493
642
525
525
390
698
559
423
528
552
513
493
486
542
559
454
454
470
681
448
498
502
590
426
420
520
692
586
465
521
476
534
477
465
552
590
540
461
505
519
533
506
541
459
632
417
475
698
533
508
495
545
504
544
464
549
500
637
505
405
578
630
500
488
708
540
571
473
475
630
672
336
511
0
649
521
553
509
636
584
293
452
504
733
525
508
536
797
480
499
523
550
536
461
502
491
597
518
476
541
517
747
581
473
562
664
514
478
445
680
466
488
501
542
478
567
502
518
605
495
497
435
561
476
499
591
524
581
500
484
505
582
425
489
528
630
504
479
541
611
477
528
468
495
694
378
481
538
619
487
496
511
482
625
475
518
494
699
414
523
518
596
525
513
473
537
554
443
563
616
538
458
593
450
602
480
443
509
627
504
470
471
532
661
382
488
474
698
452
461
609
549
508
468
485
462
624
546
472
498
599
510
456
471
516
585
511
463
565
610
495
463
473
533
449
599
489
569
500
469
508
532
631
479
499
470
699
487
482
533
586
529
478
481
499
605
449
490
557
690
490
489
511
542
550
433
517
474
660
552
458
544
618
661
495
710
645
551
501
482
545
548
468
508
542
618
474
457
545
593
511
447
518
667
561
448
491
525
496
513
172
507
419
511
0
741
447
495
218
690
468
555
584
505
469
278
607
0
543
488
683
522
590
565
686
452
510
507
614
666
417
515
580
996
511
485
471
730
453
420
520
630
467
483
478
544
625
479
477
576
459
567
523
495
559
592
511
470
496
541
421
491
585
550
498
502
508
691
511
459
581
534
650
469
442
501
553
557
516
481
551
539
445
503
596
628
473
464
513
571
467
555
485
570
698
423
456
595
592
475
515
602
620
692
480
660
700
246
509
679
496
803
197
665
524
621
506
544
530
433
598
483
356
635
716
440
471
523
611
480
428
466
613
672
457
498
574
311
962
0
546
794
629
437
423
467
551
429
566
591
574
444
435
624
752
218
574
0
644
238
459
483
546
541
459
479
486
592
474
391
484
601
592
413
545
640
584
437
490
527
555
510
441
456
599
519
481
557
433
649
422
556
506
593
534
450
533
595
559
460
511
520
570
510
474
506
605
502
484
442
519
574
552
549
479
591
500
456
504
603
510
500
514
529
545
364
617
519
606
527
492
541
527
533
355
557
739
528
483
522
449
472
555
517
459
667
577
357
489
467
567
633
477
582
612
461
506
432
572
580
493
497
563
628
463
463
491
598
510
475
593
596
224
482
0
1023
574
435
567
672
582
343
471
791
613
505
588
473
573
555
369
618
590
625
447
495
409
633
509
455
588
608
524
442
538
519
582
471
470
499
532
554
494
486
527
620
455
474
430
717
464
457
539
560
522
343
479
564
562
500
505
504
632
489
491
442
652
483
469
515
542
556
511
491
502
560
454
545
534
611
478
460
496
627
535
436
557
525
546
498
504
630
703
368
460
401
458
676
646
552
502
663
442
431
566
1023
615
677
584
163
431
53
505
529
874
658
468
759
72
393
0
458
508
552
890
392
697
743
447
534
207
429
333
527
566
1023
752
644
648
564
0
434
565
686
15
477
462
338
490
678
521
629
541
612
473
588
463
658
501
493
519
1023
621
911
669
727
606
630
577
696
604
193
493
0
612
76
502
63
465
515
391
470
557
698
695
436
517
527
630
482
336
691
691
529
386
444
248
151
623
555
1023
635
445
641
516
278
548
0
698
522
429
462
542
645
699
428
533
526
564
602
519
443
569
519
512
643
1023
679
528
531
499
430
403
178
1008
585
497
505
590
470
637
481
633
463
98
680
497
497
698
624
517
470
464
469
461
509
471
554
203
472
796
645
113
667
0
613
817
302
485
551
561
470
485
501
619
0
600
120
513
1018
542
551
491
411
533
0
560
599
538
545
577
457
616
438
566
499
67
429
497
440
776
755
695
506
378
422
429
514
547
627
494
567
598
535
0
1023
539
511
697
578
506
468
524
437
512
496
593
667
389
447
533
552
538
563
488
493
620
508
496
569
0
1023
0
786
638
595
584
463
487
502
443
533
617
562
430
510
487
538
522
533
401
658
371
487
1023
597
986
568
770
486
674
0
650
453
575
332
531
571
514
0
712
0
697
0
471
385
449
1023
699
666
823
451
476
371
442
221
1023
57
495
499
487
698
1013
587
909
395
340
359
0
728
0
625
478
420
324
427
476
697
659
599
1023
355
661
130
551
248
179
580
732
685
750
477
547
455
351
683
46
381
292
998
641
570
747
741
474
237
495
483
607
616
596
544
811
504
498
550
502
700
361
530
507
627
470
474
455
564
74
500
557
551
149
542
0
636
670
464
506
469
541
523
481
495
601
619
639
474
140
787
0
827
680
845
544
1023
525
530
524
440
481
341
613
0
667
504
715
498
539
699
656
643
497
471
569
628
633
543
568
612
538
434
477
558
513
479
439
548
658
450
436
588
675
451
474
566
524
663
405
471
509
672
440
518
539
528
494
428
524
646
517
537
445
533
686
393
455
619
505
546
486
456
646
612
451
474
498
501
553
493
482
628
602
448
412
558
617
455
534
506
554
455
502
538
571
519
456
471
636
640
446
560
753
634
227
1023
482
1023
651
517
526
529
530
451
416
518
700
451
455
603
530
511
484
458
671
630
444
496
542
610
475
435
681
620
522
457
719
573
682
437
635
525
573
454
478
538
551
507
508
545
510
564
511
395
604
555
477
453
515
636
432
448
557
521
605
475
524
418
742
463
481
548
526
472
454
486
528
649
460
566
451
672
493
445
519
606
138
510
602
501
551
505
502
450
540
526
452
544
633
537
463
497
504
587
517
516
491
634
579
476
453
502
563
522
501
518
559
589
464
620
539
926
514
607
686
523
452
535
699
514
494
552
483
581
596
485
467
540
626
482
462
621
626
446
453
496
574
501
564
623
585
545
511
463
450
696
451
467
574
623
435
467
556
532
587
508
467
505
626
448
514
536
559
616
496
478
648
496
462
545
505
618
458
471
397
634
527
510
508
581
574
484
432
556
538
537
569
468
632
506
480
541
492
643
475
433
546
712
339
498
557
595
538
448
527
624
497
536
498
518
555
516
485
478
600
479
536
572
500
496
504
505
520
528
581
452
461
606
549
441
519
540
552
434
587
548
567
472
486
414
653
478
469
626
538
540
477
472
664
532
484
512
461
601
493
507
486
580
623
393
534
506
618
524
458
455
624
490
553
568
840
540
0
535
665
145
644
557
239
585
0
484
499
598
269
506
486
420
550
525
515
446
573
634
438
395
586
608
442
494
525
696
428
492
420
812
647
446
527
884
675
441
461
524
633
454
480
294
492
109
538
517
769
463
583
544
676
621
485
506
505
570
493
493
370
579
768
410
485
557
534
457
534
467
612
520
453
556
538
601
363
563
642
531
452
387
549
675
501
420
504
651
556
412
461
486
679
386
531
576
498
554
575
604
513
608
474
466
530
547
474
476
617
517
521
477
522
556
575
596
458
479
573
486
468
536
584
523
499
614
499
606
507
544
532
583
495
505
435
726
605
463
578
504
592
440
540
532
724
464
475
582
490
526
430
492
552
513
461
629
420
639
514
460
487
667
533
500
511
1023
575
0
1023
296
558
86
629
478
664
445
494
594
142
624
449
562
582
54
529
0
579
559
555
491
517
581
518
413
522
478
682
458
564
460
604
471
502
571
537
575
404
498
461
599
407
510
662
511
522
582
471
504
290
429
593
486
621
471
523
481
475
450
618
508
533
695
459
476
454
539
589
474
637
567
579
437
491
476
618
452
523
580
516
462
477
632
563
490
462
527
508
558
461
499
479
643
454
484
535
569
532
506
484
565
594
435
535
482
619
476
443
591
539
535
426
547
503
647
448
492
510
625
500
461
485
533
562
345
640
514
569
507
487
431
523
631
1
282
697
120
508
538
549
578
610
421
351
740
482
507
954
630
0
741
453
773
477
502
617
445
0
497
0
449
698
73
1023
530
518
591
535
512
611
0
309
440
577
820
207
1023
473
734
538
525
552
404
515
469
582
332
576
134
698
451
547
649
547
508
719
0
609
171
596
565
559
433
534
489
584
461
485
431
558
510
397
642
704
518
519
620
69
1023
1
403
566
583
607
1023
595
682
719
456
461
466
529
550
482
482
528
530
447
433
566
572
462
407
492
658
399
500
538
502
625
430
498
533
633
432
459
548
364
464
439
467
614
495
513
530
541
551
512
492
504
653
456
479
493
475
492
527
539
561
560
362
504
516
604
506
583
568
585
499
456
483
525
623
367
542
494
582
504
463
606
636
504
738
504
694
249
695
451
391
726
66
634
684
605
513
508
531
669
705
629
692
411
570
345
437
564
624
507
456
454
532
635
423
537
402
650
538
395
532
613
528
220
451
549
380
599
545
568
550
660
462
471
656
610
488
196
441
568
452
464
659
697
512
483
547
539
590
498
508
607
587
468
455
526
596
453
462
619
531
521
449
469
472
517
413
1023
511
768
656
526
315
427
474
432
542
510
646
410
314
499
766
441
487
365
578
564
449
1010
586
641
458
532
492
458
720
392
543
277
519
0
620
0
455
410
470
468
521
715
524
580
559
469
603
475
656
555
578
490
304
646
454
555
484
518
489
605
495
661
683
448
427
461
588
399
501
505
546
492
400
549
523
542
453
681
363
442
520
455
469
510
542
431
586
567
561
487
395
470
556
552
499
427
551
686
1023
791
682
261
390
595
22
565
634
585
489
450
416
443
451
585
584
486
463
14
555
532
499
672
943
621
357
553
167
697
694
679
739
625
503
760
561
756
548
555
363
441
1017
487
436
635
812
501
709
446
432
563
613
513
614
694
556
0
538
445
620
499
707
646
552
461
282
1020
552
527
540
626
560
476
294
421
741
690
553
676
660
555
287
422
493
445
557
454
459
540
679
424
485
521
639
406
475
424
614
465
486
561
464
533
549
486
568
605
355
521
534
696
545
402
592
526
682
418
632
446
573
489
461
668
460
535
519
611
488
484
446
509
525
654
470
475
508
586
499
475
573
545
523
448
532
563
492
505
699
472
536
483
537
505
498
553
450
511
530
606
492
490
549
585
451
471
532
537
596
457
467
502
532
440
528
545
589
648
536
460
507
565
462
549
463
658
510
495
489
539
509
573
438
570
551
540
440
508
502
512
527
498
532
567
426
488
654
521
464
526
545
645
460
488
499
607
434
492
511
590
594
465
466
642
521
472
516
550
511
559
451
570
567
531
573
456
553
582
505
508
441
608
551
477
491
509
629
446
489
475
604
640
492
412
623
511
498
498
507
564
498
539
405
766
491
452
532
455
546
505
481
685
579
464
497
457
685
438
539
527
605
488
473
504
499
675
352
581
489
651
441
503
528
627
487
390
493
654
609
391
526
565
589
446
496
575
558
516
537
486
577
561
449
448
614
636
447
490
591
605
531
460
613
510
511
503
513
438
613
498
431
531
627
534
477
575
507
603
487
469
512
597
484
491
481
564
543
465
518
650
517
532
501
393
637
470
534
470
595
517
491
507
482
676
490
266
484
359
591
439
1023
682
0
623
525
587
588
538
509
439
627
566
546
418
752
510
570
559
511
568
504
481
506
576
512
463
491
24
625
439
475
598
614
393
477
437
647
532
460
509
613
521
448
476
565
615
457
462
484
622
504
510
504
510
594
384
651
508
697
447
473
539
581
479
471
489
537
569
497
488
529
574
495
544
463
570
504
572
436
588
596
439
519
502
614
458
521
416
696
403
448
534
584
491
490
587
497
644
506
482
365
501
514
463
587
572
579
440
478
492
581
0
663
185
692
577
530
802
530
736
512
251
632
541
505
437
477
546
492
560
488
0
697
399
605
531
524
466
499
439
666
488
486
540
446
606
438
524
547
556
467
465
477
580
517
511
479
680
471
507
548
649
552
483
463
429
525
552
487
529
572
564
394
552
540
558
542
498
498
519
524
468
541
557
495
475
473
511
655
442
499
495
563
524
552
648
463
542
497
523
533
566
502
482
502
562
538
464
527
577
592
430
504
518
553
463
551
417
637
546
408
503
518
589
476
444
559
651
449
499
473
569
514
447
528
614
516
481
512
583
600
476
438
488
536
573
540
498
556
555
570
429
484
678
537
672
460
248
591
489
808
606
605
457
681
501
560
491
534
515
508
544
369
512
597
526
441
640
511
569
506
466
548
654
500
439
437
699
564
486
550
478
536
511
438
492
558
496
480
554
545
593
493
481
490
557
528
420
541
642
472
518
488
566
581
449
483
531
533
521
496
496
624
474
463
492
560
569
511
484
502
626
480
391
497
654
498
424
493
564
563
449
471
406
635
460
562
497
610
454
464
461
490
640
525
477
534
607
469
522
491
68
576
596
482
788
702
640
517
435
568
675
624
738
587
39
395
386
506
619
607
640
718
625
474
533
531
614
509
1023
678
618
715
478
60
349
471
477
212
1022
635
273
646
427
555
571
256
476
0
536
663
427
587
674
604
471
344
462
583
442
575
551
660
556
804
489
574
425
625
112
648
177
575
0
608
0
529
618
326
703
630
492
507
160
525
436
648
499
631
477
470
492
498
464
694
483
556
639
570
446
395
596
492
567
581
579
526
417
542
551
558
466
499
507
620
528
452
491
536
614
411
579
555
545
457
522
479
635
478
469
531
574
484
458
498
531
529
496
467
503
642
506
492
499
497
511
511
556
634
564
471
529
462
591
446
453
543
570
526
520
434
574
605
461
544
522
568
226
287
675
267
708
605
891
627
646
467
0
491
552
379
498
607
745
699
452
542
560
608
488
579
576
481
522
428
504
480
455
389
482
562
604
451
511
455
633
345
593
487
668
455
442
650
477
597
512
485
511
619
465
398
542
611
483
466
533
542
562
436
512
479
650
627
425
519
565
475
333
530
665
520
527
667
427
762
603
158
680
488
528
632
476
748
564
292
572
494
672
478
981
459
762
570
678
554
694
618
478
425
551
571
525
478
503
620
511
419
887
638
534
376
488
694
699
641
437
624
413
413
1023
219
467
602
624
499
455
509
564
533
548
692
468
441
513
537
579
541
567
467
582
452
500
528
586
577
399
477
609
505
543
462
488
632
458
456
517
532
629
437
530
549
552
462
566
455
581
508
494
504
640
462
713
439
625
495
389
130
417
513
420
297
1023
513
603
687
13
506
542
676
664
844
799
601
186
374
371
419
431
400
1023
747
671
603
530
524
355
409
494
396
784
382
499
657
610
637
481
499
691
493
492
676
504
525
364
492
432
553
433
476
639
497
470
337
535
426
614
459
1023
711
678
606
576
507
538
396
450
461
609
519
514
489
656
537
260
1023
429
698
642
319
648
384
1023
493
794
588
491
506
524
0
543
1023
555
522
806
698
521
0
437
0
459
662
776
740
644
471
430
523
493
546
524
510
515
489
498
442
858
476
17
513
495
438
487
699
916
697
626
497
397
458
440
403
536
560
448
454
403
506
1023
698
726
529
667
330
373
434
574
552
558
302
160
736
466
512
535
587
447
445
475
579
596
478
469
515
498
470
512
551
565
510
475
570
484
507
553
544
523
622
468
466
454
622
501
548
512
606
604
442
477
527
552
469
545
518
533
596
510
494
574
520
459
463
563
571
476
518
506
551
531
421
477
671
574
467
490
508
532
462
618
498
574
507
489
401
623
530
504
616
491
554
526
471
486
570
661
476
474
684
519
468
503
504
561
407
672
412
576
552
487
481
582
531
447
515
486
594
519
458
527
618
530
455
437
559
553
495
540
496
606
417
509
411
627
637
464
480
525
532
471
531
546
619
464
410
576
546
486
535
547
516
497
479
512
529
621
485
491
499
629
466
460
487
617
509
449
468
599
550
561
436
528
578
543
436
508
557
523
558
838
531
618
683
553
648
477
661
541
673
717
487
486
503
550
552
479
475
452
683
463
239
637
437
707
470
366
437
506
366
679
538
662
511
549
491
540
615
771
526
273
593
267
547
484
597
581
359
610
380
694
480
957
557
1023
554
158
614
664
476
699
769
560
518
314
0
469
999
490
606
655
720
492
189
432
515
513
430
496
1023
808
605
740
0
503
0
294
554
670
646
612
703
603
658
513
510
0
451
516
409
598
732
669
692
432
706
674
433
495
797
637
590
405
499
515
487
547
311
777
732
776
518
611
564
590
540
534
555
524
451
486
527
597
389
538
506
549
630
436
536
517
470
525
541
379
631
462
480
476
604
535
452
542
679
484
516
482
566
501
499
492
512
546
553
454
471
598
522
500
501
444
642
508
486
544
505
550
509
490
540
608
407
508
483
536
502
523
460
689
557
437
445
695
592
419
586
556
522
487
487
470
576
646
470
498
596
554
450
483
482
650
503
481
476
658
532
447
494
640
505
472
469
514
556
478
488
492
544
575
471
493
664
534
471
452
518
559
499
488
494
583
563
459
510
478
624
624
481
457
36
532
532
0
753
0
702
189
673
553
555
532
478
574
386
554
534
558
601
481
461
539
479
510
481
550
468
493
469
419
700
490
448
572
547
459
504
542
557
623
463
504
486
533
533
495
527
564
535
533
544
556
549
517
502
477
598
498
502
539
584
534
443
448
581
635
516
587
437
648
478
467
476
506
679
474
506
570
552
490
457
469
547
570
529
451
554
658
510
513
486
580
484
475
475
552
651
468
436
634
623
422
494
550
624
447
484
446
665
460
405
530
600
545
501
466
594
510
476
496
460
529
516
562
608
524
536
529
470
486
616
475
495
487
536
516
537
523
625
489
483
507
440
621
519
494
486
527
692
424
471
584
662
428
458
524
620
491
496
451
632
562
370
504
627
442
529
675
470
592
489
478
441
547
509
531
507
632
533
402
526
533
643
447
506
500
567
554
467
529
603
534
386
480
640
586
493
497
473
581
564
451
558
522
608
449
488
560
602
470
422
596
460
518
560
521
565
509
473
473
528
610
445
546
466
524
512
553
512
503
667
454
504
529
526
495
522
465
616
462
510
390
697
494
480
586
505
516
422
654
419
528
624
479
519
568
767
460
328
302
836
655
329
531
694
514
318
392
457
704
483
528
446
663
572
387
618
555
571
435
458
576
577
471
505
541
628
444
487
553
472
603
499
494
499
576
436
508
616
575
435
580
485
521
570
494
494
603
555
487
402
659
543
447
538
560
556
512
531
427
561
566
519
576
483
622
482
502
437
619
496
533
339
626
526
477
555
532
576
463
473
430
568
620
444
483
678
454
478
551
534
615
427
539
400
550
484
510
521
580
530
476
396
607
667
370
579
473
646
464
504
541
497
530
477
489
526
570
501
464
487
507
580
628
377
650
501
493
467
527
617
620
518
941
661
110
582
552
623
543
502
444
492
558
476
456
535
636
472
500
490
560
564
418
527
434
550
459
486
518
530
483
478
519
562
605
401
513
563
634
497
441
468
660
480
460
527
561
498
483
468
626
588
423
465
539
666
407
619
518
521
557
458
424
571
621
456
485
467
609
526
509
552
541
537
464
518
498
616
471
485
0
645
0
511
563
639
645
462
593
564
596
505
605
502
535
535
600
458
499
604
477
478
574
575
429
465
530
645
502
483
493
615
469
449
500
495
642
468
475
476
478
490
628
523
590
644
435
491
538
512
444
485
581
618
544
458
514
529
642
445
475
578
620
467
436
512
581
487
568
475
546
597
387
530
399
661
569
451
538
567
488
431
444
660
619
465
758
605
394
456
0
655
0
559
343
1023
633
810
692
533
520
395
512
446
697
677
524
471
467
480
444
682
482
608
577
535
451
419
523
558
492
536
568
539
465
482
253
620
320
547
0
725
552
491
582
572
557
448
486
536
588
466
470
503
609
460
705
518
223
577
49
630
211
572
420
614
473
678
533
513
489
499
498
461
521
537
603
498
461
463
683
419
487
502
565
570
460
489
537
615
453
499
537
618
455
510
489
624
514
456
509
684
493
486
696
484
653
451
465
524
552
532
456
528
565
545
442
531
485
597
443
501
528
528
526
480
453
479
636
540
484
590
614
430
479
474
562
588
489
522
554
554
438
505
445
732
485
471
490
593
601
428
503
520
678
517
472
466
566
498
553
436
552
540
470
559
513
602
515
472
495
612
464
446
518
689
484
423
512
569
537
499
501
490
543
502
545
272
612
544
475
547
550
569
487
494
474
625
482
496
495
580
514
370
696
543
595
487
602
474
587
445
471
511
606
558
455
521
490
618
435
494
553
632
465
475
589
501
520
501
561
547
588
488
480
459
568
496
557
481
572
550
513
509
512
665
445
444
536
662
428
490
511
545
528
492
505
576
596
390
509
486
656
482
512
539
600
492
513
510
313
629
463
573
442
610
493
516
485
568
489
479
603
506
556
454
525
399
652
517
453
556
602
521
470
485
601
625
453
463
527
656
438
519
476
611
540
472
524
547
580
510
503
496
623
470
468
459
682
541
521
482
543
554
455
461
496
623
524
509
593
512
475
493
532
496
643
539
490
510
602
473
446
499
583
515
433
494
612
559
516
463
538
525
202
489
458
646
606
482
611
573
737
466
638
531
849
494
74
368
501
1023
576
729
747
644
123
518
512
943
618
370
560
538
281
1023
430
1012
768
799
543
417
441
569
484
107
601
549
418
461
566
570
466
467
453
661
454
513
424
673
466
449
523
697
554
574
786
68
1023
531
651
695
713
508
403
371
514
825
247
533
0
591
1023
734
30
773
682
615
410
445
449
498
533
505
645
496
467
529
571
514
392
533
580
570
473
499
475
616
505
513
494
587
487
542
491
610
508
513
514
435
613
531
487
457
598
591
467
483
560
584
365
524
586
532
505
338
524
564
556
492
443
560
901
705
970
1023
712
497
459
51
394
511
442
1023
696
524
599
511
696
605
635
298
748
625
427
419
459
503
642
578
697
571
624
566
361
503
688
514
515
480
641
581
458
512
508
552
520
557
518
578
474
527
524
589
589
371
449
649
609
425
513
478
548
514
453
513
664
519
522
457
520
725
517
536
452
543
540
447
551
632
624
439
490
507
558
728
50
1023
0
1023
0
0
609
258
0
632
0
786
440
0
383
481
333
1023
631
1023
724
0
473
364
532
520
469
149
563
488
462
524
538
575
422
477
621
576
381
653
467
539
503
977
516
621
534
709
661
804
502
37
558
380
555
543
604
649
701
672
376
674
496
735
552
465
499
329
169
1023
609
724
506
759
468
132
549
367
473
441
648
531
532
534
601
506
483
523
496
636
507
446
556
595
536
384
450
604
591
493
552
1023
597
644
536
498
448
304
475
336
848
582
558
818
540
584
459
431
421
495
630
418
543
636
484
417
511
532
494
481
596
276
583
627
472
12
1023
0
1023
0
1023
644
655
516
572
624
418
506
495
689
492
251
605
0
481
1023
503
511
795
1023
483
392
596
491
645
512
781
522
631
535
700
561
754
728
553
579
604
496
500
520
508
436
553
459
574
652
457
0
603
1023
465
631
743
677
496
350
386
578
635
550
0
1019
0
434
494
576
620
445
563
509
514
609
697
510
604
489
605
506
646
668
432
435
522
607
508
608
483
563
664
156
447
559
853
169
166
557
757
416
601
347
498
546
536
527
521
572
573
547
406
652
39
968
491
500
490
246
634
169
525
429
548
493
761
525
549
471
608
480
409
620
622
552
508
532
496
538
480
527
500
616
574
378
544
532
626
1023
358
584
701
1017
475
495
594
593
479
586
378
722
450
264
440
121
537
506
1023
993
648
584
612
0
514
475
306
595
760
598
466
376
394
670
536
492
473
513
415
519
494
573
486
483
447
607
607
442
479
596
592
417
487
222
678
469
444
592
622
476
471
494
526
582
444
507
452
597
540
461
496
619
522
487
649
565
560
472
509
533
557
464
507
510
552
514
460
493
575
554
461
500
500
579
484
499
506
525
527
529
510
549
601
470
482
460
618
508
461
514
528
642
401
500
579
654
414
465
658
531
491
546
497
517
477
477
489
554
587
515
429
541
640
479
454
519
370
496
557
678
247
970
666
567
147
699
582
473
137
699
47
520
502
575
588
447
482
87
641
449
474
519
573
543
483
454
559
605
424
493
509
574
482
508
484
554
513
480
634
606
585
420
533
523
584
480
472
472
593
457
500
515
543
546
495
435
509
651
472
486
502
543
514
367
547
607
553
516
514
552
525
465
479
447
597
521
494
520
572
502
447
554
467
667
481
488
479
544
538
470
498
539
556
451
441
530
665
444
476
502
167
571
461
513
631
529
490
428
492
615
484
500
479
580
500
452
505
639
487
472
587
486
598
523
467
480
613
508
470
487
530
679
452
494
535
631
481
439
489
503
497
559
512
543
558
464
494
485
545
478
505
449
591
624
426
464
587
535
469
451
559
651
461
489
482
617
615
560
515
1023
618
438
481
0
711
398
487
633
562
463
461
494
531
550
598
478
600
559
478
515
489
552
485
472
494
576
556
495
450
638
581
599
485
471
456
582
436
494
583
542
423
454
510
585
476
490
478
609
469
130
539
0
571
0
626
66
1023
636
500
25
1023
0
530
535
670
542
460
448
507
579
441
499
479
606
439
473
771
633
494
506
557
489
585
498
468
486
629
460
476
531
589
504
533
554
503
563
413
666
475
642
527
504
538
605
515
433
503
538
585
453
500
553
546
508
493
507
642
470
448
491
571
627
469
505
508
622
465
493
498
606
520
459
516
564
565
453
476
520
629
468
493
523
511
488
483
534
563
568
506
527
454
585
473
525
534
641
469
503
511
530
611
448
470
498
593
491
488
476
615
482
456
532
510
612
466
476
493
634
460
439
737
764
419
474
546
617
552
357
520
493
663
458
492
485
575
538
462
496
580
562
467
485
486
617
478
493
509
566
483
484
569
552
537
499
531
469
636
412
516
589
610
504
464
498
518
561
444
445
534
657
450
467
517
540
574
441
499
589
559
413
502
511
611
466
474
513
550
506
468
525
549
517
445
528
484
671
462
725
456
386
484
1023
0
491
695
801
520
577
552
393
489
494
594
447
455
497
501
610
489
445
555
603
459
479
666
610
494
470
501
542
575
471
488
501
639
467
479
485
554
500
473
553
515
608
454
499
586
532
442
624
462
564
532
486
475
507
523
490
483
519
609
474
440
498
614
489
481
510
518
532
459
487
527
591
487
460
467
587
581
522
769
549
60
438
429
1023
351
724
858
542
531
429
302
509
556
584
632
469
0
569
1023
601
553
806
615
543
391
312
535
403
463
626
652
433
494
499
547
485
440
495
558
545
502
458
575
594
452
488
684
536
583
408
555
639
574
441
482
504
597
482
444
469
610
528
483
484
561
534
458
511
547
603
463
438
468
695
532
472
545
586
520
448
469
573
541
458
586
406
572
619
285
603
575
595
603
499
700
585
550
497
478
620
493
464
484
605
503
428
545
482
523
548
284
489
43
593
699
576
638
499
407
697
477
694
476
405
534
0
376
148
426
445
643
698
511
486
537
441
388
457
1023
498
698
676
648
490
382
434
470
530
475
166
655
583
497
521
203
670
608
436
539
711
523
440
428
430
600
498
503
444
571
549
439
613
529
615
514
560
470
650
484
426
526
558
526
473
503
560
565
462
515
461
676
475
494
499
577
523
422
480
615
538
456
597
490
610
476
446
550
578
503
508
493
497
573
436
545
475
651
529
506
473
549
568
445
481
608
575
483
532
484
645
482
470
515
619
493
500
473
557
586
447
586
498
608
498
464
531
580
498
501
519
537
600
500
424
743
564
459
669
479
622
496
435
482
539
586
490
524
503
594
475
546
491
509
642
464
490
563
529
510
503
474
489
517
571
482
565
533
488
503
539
540
457
493
555
585
486
503
498
570
513
466
509
570
548
358
750
539
442
1023
487
52
762
546
371
630
475
389
651
518
477
510
575
507
181
666
475
603
527
539
575
499
467
476
611
496
502
486
63
531
473
767
610
409
498
255
547
0
696
2
725
629
553
541
533
558
585
440
161
694
0
439
539
650
725
616
658
553
0
720
0
819
595
673
529
464
449
543
433
510
678
541
562
438
449
559
610
444
457
542
571
545
474
496
611
516
461
571
496
592
481
538
491
658
482
493
566
546
569
445
475
526
688
452
486
545
606
530
458
561
565
379
509
496
546
616
468
558
477
559
514
529
499
527
608
463
553
437
617
539
412
536
601
534
465
502
540
538
464
515
580
615
451
513
509
588
491
484
599
533
532
453
501
500
626
482
510
498
574
490
490
543
491
534
462
698
500
567
466
492
481
501
524
489
529
568
516
500
504
554
626
470
568
471
590
500
471
574
540
523
465
511
489
602
461
606
478
619
520
529
529
561
475
508
552
514
670
464
507
470
596
471
565
530
846
418
531
563
588
524
454
547
441
601
525
444
551
571
508
470
508
526
646
456
435
479
160
525
654
497
603
591
0
451
545
542
566
508
832
792
449
646
582
0
498
272
473
528
657
534
644
558
540
494
497
691
836
1023
488
827
517
767
393
532
531
634
423
412
641
552
548
484
462
647
600
506
538
73
603
801
669
674
125
694
635
0
699
645
552
621
434
551
390
356
1023
210
654
594
224
694
0
506
128
474
672
658
776
632
668
546
480
158
1012
757
551
643
540
615
448
526
504
2
680
509
724
587
657
497
553
456
114
479
581
492
628
532
508
448
491
565
482
487
585
536
501
524
503
483
480
497
534
776
559
433
540
520
552
479
566
462
555
552
456
680
582
348
444
532
547
884
707
486
601
499
483
561
467
481
644
419
480
408
573
503
572
479
564
559
466
481
553
563
477
628
497
581
496
479
550
627
472
494
572
499
624
499
480
411
686
492
461
517
677
510
416
506
545
576
526
522
496
574
537
532
471
600
493
526
485
531
653
394
572
543
129
519
483
507
585
489
529
488
531
586
525
486
484
664
466
467
454
704
445
496
643
497
578
468
476
482
609
501
500
493
543
589
458
534
558
583
509
442
518
602
461
491
557
516
585
510
511
513
564
486
498
511
630
443
534
435
579
535
529
492
609
496
517
478
496
641
452
519
503
533
507
508
452
619
554
497
512
464
647
486
448
452
608
448
519
497
612
585
467
525
462
532
500
550
502
538
556
489
470
530
557
532
481
473
558
506
536
468
612
538
468
496
528
587
466
542
476
652
483
556
434
561
512
479
529
570
505
541
524
545
574
436
502
462
549
490
628
470
550
639
413
508
540
604
484
452
547
561
496
512
483
595
550
391
541
634
537
481
488
503
620
483
449
516
629
579
460
390
510
547
371
657
661
807
660
479
413
494
494
445
509
540
774
459
608
526
482
570
0
576
556
660
530
523
509
629
500
487
462
537
600
464
247
678
124
630
614
569
204
480
452
422
603
570
542
504
545
490
463
554
484
631
498
463
448
622
478
501
590
759
547
469
486
494
694
541
514
516
508
456
724
735
671
698
590
488
427
497
523
795
666
18
517
790
566
582
823
599
470
470
