CH1
327
316
540
750
450
290
510
673
662
269
382
629
684
372
350
565
762
530
215
472
724
666
204
428
669
691
322
324
577
764
459
252
530
687
619
260
415
609
704
300
380
566
753
467
260
464
687
667
241
424
627
748
293
284
611
745
486
300
467
696
649
247
387
664
730
319
314
584
708
488
241
499
685
664
259
372
672
750
329
324
570
767
467
269
493
688
651
255
372
658
713
315
325
566
844
487
267
501
685
638
218
410
630
740
324
355
503
764
488
281
475
684
642
229
420
649
673
372
295
538
766
482
242
531
684
642
252
370
688
720
337
298
623
762
503
256
482
730
639
244
414
632
729
328
294
579
790
441
334
490
695
625
231
439
619
734
325
313
572
762
467
281
487
688
647
261
378
632
738
341
295
594
772
464
306
478
702
665
232
397
651
755
310
314
554
777
475
270
494
688
661
232
416
668
700
298
328
561
779
470
292
487
720
654
232
408
637
737
303
362
570
771
467
286
478
690
638
240
410
666
687
308
348
587
752
452
324
488
685
651
255
403
650
742
312
324
579
770
454
282
515
687
653
262
410
647
719
316
366
548
780
474
286
488
730
628
247
420
626
735
301
348
582
792
466
236
505
715
633
232
427
643
700
320
324
587
785
425
328
502
682
650
331
414
629
724
293
347
588
773
468
230
465
733
617
291
395
662
696
288
348
601
772
501
244
507
686
636
247
410
686
723
305
332
599
783
417
281
503
714
623
278
445
654
698
337
324
573
779
457
298
417
784
618
267
406
680
732
262
345
598
762
477
256
500
706
622
237
429
669
711
307
320
601
752
457
315
484
685
626
277
431
646
701
289
328
606
763
466
261
506
710
655
237
427
654
710
305
333
598
779
450
271
509
723
602
304
414
650
689
334
332
569
797
422
282
504
698
598
263
419
640
730
336
334
548
786
521
228
550
736
602
266
407
671
689
294
332
614
780
439
284
507
737
584
244
406
672
676
304
347
572
798
464
266
497
774
581
246
393
649
678
322
334
589
792
464
242
512
748
589
269
432
638
669
351
301
601
796
506
260
515
686
604
280
417
667
713
295
340
576
758
456
317
458
749
574
245
413
678
648
302
325
573
776
454
309
494
741
590
237
439
653
694
305
321
590
785
413
292
450
834
531
290
423
669
684
284
310
595
794
428
308
517
725
563
261
439
659
666
295
357
579
767
427
271
526
687
608
261
461
664
665
312
299
589
809
440
284
521
761
558
265
430
655
682
317
359
595
758
433
279
509
763
592
287
426
654
692
300
310
674
778
410
286
515
726
572
275
425
656
680
292
345
597
787
398
274
534
749
577
273
414
649
684
289
350
598
761
373
327
525
738
559
270
442
645
663
318
356
604
798
397
325
503
784
553
247
429
685
665
307
361
607
748
413
307
519
755
535
331
414
643
657
313
377
588
761
393
315
525
730
609
257
415
652
686
300
349
606
755
414
293
504
761
542
278
438
654
663
299
353
614
773
380
294
523
774
526
303
440
657
666
291
357
610
767
404
293
526
767
542
258
433
647
678
354
377
582
749
420
294
519
757
552
273
433
641
670
325
352
636
685
433
317
524
756
543
257
434
652
645
319
387
620
758
388
296
544
761
518
234
463
678
654
280
396
603
732
367
297
546
776
508
273
460
650
644
307
399
612
724
413
274
540
773
533
233
462
660
684
301
390
608
735
394
302
526
771
517
303
427
723
666
284
359
624
782
323
291
582
749
523
259
458
621
655
308
391
625
744
338
310
543
802
502
257
471
667
668
263
381
635
747
362
345
505
775
509
262
455
651
660
283
401
633
752
343
300
551
761
520
249
465
679
653
271
380
612
770
366
298
543
783
501
284
452
728
647
282
394
617
756
346
279
546
785
490
267
482
686
655
249
406
645
762
314
303
512
766
553
265
475
682
654
250
383
638
763
336
319
514
772
504
288
471
684
639
279
380
620
763
326
322
557
748
475
336
478
685
650
241
386
637
731
322
318
568
770
475
311
480
686
656
249
394
575
761
316
326
558
756
485
268
485
674
659
260
380
649
766
340
307
583
745
501
264
488
687
677
245
391
656
726
328
330
574
760
478
249
492
671
691
216
448
600
722
348
311
574
746
465
320
487
685
648
251
411
638
722
320
317
559
790
455
263
472
724
665
241
423
630
728
309
314
582
759
480
279
481
680
635
279
409
630
717
330
299
629
760
463
292
497
686
637
228
432
640
723
322
322
581
754
486
270
506
700
649
233
428
604
735
344
322
567
764
476
249
493
718
626
265
399
636
687
347
338
594
766
432
259
488
685
666
282
430
675
705
318
341
557
777
446
287
505
727
598
295
437
658
737
304
296
624
788
466
240
528
725
625
230
440
637
737
294
363
565
824
433
282
530
712
596
242
457
657
701
313
296
593
808
442
292
521
721
579
327
416
655
686
301
346
566
758
397
334
488
727
589
260
435
618
756
317
332
609
767
442
263
559
712
558
295
433
643
703
279
362
598
748
421
299
524
721
596
218
437
666
701
301
347
618
759
436
274
516
748
577
218
487
679
681
371
326
602
778
393
295
499
758
578
229
442
681
703
297
352
636
739
435
255
523
777
552
274
419
661
686
307
368
606
789
350
337
587
717
562
238
440
689
659
320
369
614
800
370
280
564
764
550
263
394
683
661
342
339
602
762
430
298
507
760
529
276
452
627
688
313
336
639
768
381
325
533
748
555
268
447
668
667
267
393
601
778
353
354
500
793
513
274
449
668
658
287
336
612
750
392
313
519
759
527
298
450
664
663
264
426
599
736
375
289
540
787
529
254
460
656
638
310
360
654
756
357
285
544
772
511
262
470
667
647
274
359
596
764
391
305
521
811
508
240
470
659
670
293
386
625
749
342
294
543
760
535
247
468
685
657
260
353
664
720
392
290
522
783
509
289
464
672
648
268
365
623
719
355
311
514
740
565
260
477
687
640
244
382
628
754
327
307
525
786
502
285
456
708
650
270
415
636
738
322
346
546
740
523
275
482
685
659
251
385
635
731
334
314
541
765
508
232
511
687
652
269
421
623
707
350
370
542
768
489
244
494
693
641
265
375
639
742
270
344
538
775
484
295
446
686
640
244
416
622
724
344
320
547
747
497
278
489
651
684
265
390
607
746
329
294
554
761
472
291
499
681
661
245
415
656
721
288
349
574
790
469
312
477
720
641
226
446
656
703
294
336
599
756
435
317
524
724
648
231
427
643
712
324
351
571
831
453
254
560
701
654
247
423
667
682
304
385
578
765
482
220
547
705
605
276
376
686
663
281
364
596
804
428
268
503
740
619
237
459
675
679
318
244
630
790
430
281
533
745
595
241
408
659
726
277
333
613
779
454
275
525
678
648
262
453
574
729
367
286
593
792
446
269
505
724
593
250
419
659
709
298
335
588
783
413
294
505
815
598
272
412
649
687
287
342
607
788
424
278
505
762
588
268
430
662
685
283
343
604
777
414
259
569
770
514
289
458
635
711
283
347
634
773
400
254
561
756
568
258
442
641
676
308
359
608
737
428
283
509
786
566
263
406
674
654
293
386
655
742
380
299
519
729
588
245
433
684
649
312
364
622
767
361
226
622
753
555
264
444
684
646
284
365
639
768
370
243
554
798
521
261
453
638
698
297
375
614
763
352
311
540
763
549
242
430
654
674
307
386
622
767
338
276
539
784
515
278
463
665
632
255
434
638
753
330
378
498
770
505
269
446
706
643
250
405
608
773
327
331
531
768
476
280
476
702
624
306
388
602
739
372
274
534
805
504
255
499
658
606
323
427
629
736
397
282
551
731
538
280
479
653
680
308
354
633
747
348
300
537
781
487
258
525
683
685
255
368
630
717
352
302
561
768
508
212
494
685
663
273
375
664
743
325
303
561
777
487
246
490
707
638
265
416
576
739
341
361
566
743
477
287
450
684
646
297
364
639
721
291
355
565
771
473
255
481
692
601
262
448
634
740
330
280
587
735
474
229
547
686
621
282
436
642
740
250
349
608
804
479
264
494
686
637
246
430
650
714
307
324
581
748
526
265
448
734
682
232
421
670
686
317
334
555
758
431
306
523
674
692
268
411
662
716
304
348
589
765
425
288
529
743
566
257
484
643
694
246
376
621
760
446
276
517
724
614
254
434
633
682
348
329
578
756
478
251
494
769
622
249
456
651
671
323
343
586
787
459
272
509
702
588
280
436
653
685
324
327
634
772
393
309
510
727
588
250
435
662
683
289
331
659
826
400
290
522
743
571
245
432
669
682
309
340
607
772
427
264
508
782
573
328
399
673
686
306
344
583
818
403
288
508
728
563
288
436
668
670
312
343
618
737
480
263
529
761
566
251
429
647
670
307
367
621
774
402
280
545
741
543
245
487
629
680
318
368
622
734
424
301
463
813
556
260
449
641
633
310
385
622
757
389
346
488
783
571
262
446
662
652
287
355
609
768
385
297
512
762
541
287
424
652
682
299
366
583
756
419
289
541
761
531
264
445
664
651
293
331
652
748
366
329
539
759
525
255
480
668
658
308
356
614
745
362
259
539
753
563
267
470
680
662
284
399
605
753
368
319
484
826
485
255
473
658
640
273
410
613
763
371
292
549
754
507
279
482
680
622
258
424
621
759
356
284
530
770
525
210
533
685
669
254
370
631
740
327
311
556
759
509
262
478
682
652
266
393
614
737
371
297
545
811
483
294
476
708
630
275
398
612
744
341
330
567
753
441
308
437
658
739
253
409
597
810
351
298
567
773
501
259
521
686
658
237
433
614
734
308
309
534
737
568
263
490
684
629
293
363
596
808
316
323
574
753
473
270
479
721
662
260
416
646
735
320
262
567
738
499
286
460
773
667
214
390
625
692
307
304
578
755
480
318
512
685
642
249
360
648
745
294
371
561
693
532
256
519
717
665
258
396
615
740
324
321
584
784
491
286
432
708
672
292
407
630
726
301
318
640
741
508
281
512
700
595
226
416
656
702
380
319
592
767
462
223
498
720
614
265
436
653
650
342
315
618
782
478
280
503
693
602
301
411
625
691
318
325
645
766
404
299
534
712
604
177
440
620
712
322
366
605
789
446
267
520
748
609
249
403
677
701
350
346
600
770
425
269
462
687
735
238
356
681
685
287
306
630
780
430
283
517
676
608
340
423
643
740
295
320
643
732
389
325
513
728
567
248
416
677
686
322
339
631
736
465
268
502
731
582
291
410
618
687
303
379
559
778
418
295
486
775
539
255
401
707
687
269
327
639
747
414
316
524
756
552
258
432
651
641
319
389
604
753
407
294
513
754
537
270
435
662
735
289
330
625
747
419
249
554
741
555
259
456
645
649
325
366
605
782
404
276
543
750
549
285
406
684
672
296
362
559
801
385
294
545
765
515
268
418
660
602
366
393
606
750
368
323
532
771
504
288
458
685
658
293
367
595
791
287
338
543
777
511
274
480
646
687
329
402
631
746
373
319
571
768
507
254
485
666
648
263
409
613
750
341
289
512
789
503
291
453
679
667
262
410
642
740
390
320
540
763
515
240
485
713
595
328
399
630
765
314
347
561
748
486
264
480
681
645
254
397
596
730
314
363
490
821
504
247
398
703
650
266
422
660
794
312
320
592
795
488
263
454
739
641
235
317
665
804
298
258
620
766
463
267
471
751
614
207
478
626
733
313
306
602
751
440
350
488
676
581
293
403
648
767
319
307
519
762
428
369
499
729
645
222
391
687
686
351
358
562
703
493
282
509
685
668
220
455
602
765
322
305
600
742
457
289
505
685
669
247
394
662
728
298
306
627
773
475
275
531
735
570
238
401
716
705
296
298
601
807
436
260
512
753
648
232
392
684
694
284
320
599
769
437
275
536
672
667
281
451
662
697
306
334
604
763
439
296
495
770
624
254
422
636
689
299
364
587
831
441
341
491
724
600
298
387
682
685
297
353
598
781
433
271
505
734
562
243
470
660
686
271
361
598
826
422
246
595
767
600
262
447
671
662
254
306
582
777
449
265
508
738
569
289
473
721
678
297
346
631
764
425
303
477
763
570
261
426
650
709
306
294
679
796
401
267
498
749
596
208
488
665
653
353
340
611
785
399
313
519
745
558
288
439
652
669
249
413
609
738
323
335
538
734
529
280
484
677
640
298
380
630
743
388
294
512
787
545
278
433
657
639
354
338
634
785
367
278
521
771
512
267
450
660
666
286
375
625
771
356
315
536
762
562
260
431
651
672
316
327
599
772
361
291
526
769
510
295
464
679
634
302
385
573
774
361
309
556
741
485
282
411
686
684
285
369
616
754
345
298
555
783
499
269
457
686
635
307
368
642
741
366
267
537
768
503
263
489
679
632
226
492
630
731
346
314
566
758
487
282
473
690
638
256
396
624
751
352
280
587
736
533
202
525
684
634
263
411
589
720
376
291
598
769
465
327
478
682
638
273
355
686
695
346
333
577
749
489
254
500
685
681
247
403
643
734
322
331
563
753
474
300
482
752
641
241
445
633
692
301
367
596
784
473
279
494
686
645
249
405
659
685
324
334
516
710
496
268
549
679
724
254
465
646
711
311
344
555
757
483
303
488
727
648
250
415
686
685
305
327
584
795
428
292
512
688
680
250
426
681
672
230
353
608
792
450
294
497
725
608
254
446
597
722
267
301
649
830
494
282
491
733
561
279
384
634
711
294
340
576
775
425
279
543
729
552
275
465
635
683
289
377
611
739
459
298
509
751
565
246
424
673
684
320
341
577
831
402
277
492
853
520
274
430
683
687
280
276
565
795
415
299
529
748
530
248
406
591
715
294
339
623
765
361
332
519
740
561
272
438
646
646
289
389
608
745
397
307
523
751
544
267
453
647
652
328
364
619
785
382
281
512
828
540
270
452
673
641
299
395
611
768
381
294
544
772
501
276
460
676
651
296
393
612
769
358
324
528
767
515
251
458
646
682
275
413
634
741
356
289
574
765
505
258
470
684
643
262
382
623
770
339
291
541
793
503
250
497
640
692
242
406
652
762
335
290
564
785
485
266
469
713
642
238
373
605
768
318
313
569
745
497
276
460
727
632
248
433
632
714
326
320
564
759
491
277
483
720
648
240
447
661
716
336
311
619
742
492
284
507
715
659
255
409
639
742
334
285
588
783
467
306
480
732
567
300
452
650
742
337
270
601
758
494
266
506
722
614
262
417
639
742
276
342
601
757
481
261
521
696
648
225
462
649
676
277
325
607
765
484
271
506
707
604
256
411
646
687
321
354
588
779
427
269
551
675
596
270
490
650
707
273
324
616
767
417
279
529
741
584
245
426
655
688
318
337
606
765
420
271
513
741
556
263
442
658
684
296
352
603
777
407
292
537
737
560
253
411
688
673
285
357
648
717
520
267
542
765
572
226
403
674
685
305
378
602
749
372
305
518
778
558
258
380
685
697
338
352
617
759
370
295
489
766
588
272
436
652
673
309
369
579
757
410
301
503
809
535
270
416
628
679
310
393
610
756
359
299
525
761
541
302
460
634
674
306
380
640
733
322
310
536
823
512
266
458
657
649
270
388
673
755
361
291
543
775
526
273
449
671
646
277
350
606
805
368
269
542
790
504
262
472
660
606
336
370
623
742
341
313
561
754
496
276
484
659
686
258
396
595
759
323
287
565
794
483
268
485
687
646
248
387
661
728
284
350
578
774
484
263
530
727
649
213
389
647
726
329
333
582
753
466
305
472
670
665
241
407
658
683
332
336
580
762
462
263
528
714
601
238
468
635
716
310
306
610
769
452
273
507
706
647
221
413
676
702
347
294
629
785
455
264
541
722
569
249
460
642
720
297
351
589
761
451
273
523
746
589
258
435
650
690
280
412
569
795
419
304
489
756
526
335
445
660
683
306
332
588
788
420
273
526
740
561
247
456
672
694
305
306
609
751
422
285
536
752
566
263
413
621
686
317
357
626
766
405
307
491
734
570
290
416
686
665
284
349
598
754
405
299
533
779
540
284
428
631
687
278
412
617
754
421
285
512
814
517
212
466
666
664
286
371
604
800
370
308
554
771
536
282
443
657
646
248
395
637
762
350
291
566
772
492
268
494
685
629
274
404
612
753
352
281
547
779
548
242
484
683
637
216
378
674
744
345
309
531
738
528
244
468
709
641
279
379
665
700
391
289
564
748
485
307
499
723
657
277
339
642
791
359
251
581
845
436
326
497
709
612
280
427
614
725
294
289
574
757
494
272
512
722
624
262
401
620
818
267
378
592
774
463
302
481
685
617
204
430
637
673
326
330
583
756
498
288
474
756
646
239
423
635
725
306
325
599
780
429
314
506
719
625
249
433
605
777
295
351
603
777
423
254
542
735
602
248
411
668
696
306
326
636
750
424
328
497
724
584
263
451
658
671
316
351
582
770
414
242
576
758
571
274
441
665
661
291
352
602
769
422
299
500
734
625
218
489
636
679
301
339
625
783
391
281
526
735
572
253
425
682
678
271
318
657
771
383
285
545
773
541
249
423
683
674
303
353
590
769
385
295
524
780
489
292
431
674
683
286
399
616
724
324
375
513
747
504
299
450
641
674
286
394
628
743
353
295
543
777
498
268
463
676
666
253
404
576
810
354
292
540
775
503
271
520
682
661
262
391
614
695
366
330
573
773
473
226
492
683
628
277
410
614
720
394
319
558
763
466
228
532
671
684
253
372
684
721
312
306
584
779
496
241
506
722
655
240
430
658
705
333
313
561
779
474
238
513
728
609
257
451
630
744
263
352
584
761
461
239
523
740
632
258
428
620
734
308
321
605
772
430
298
522
736
609
276
428
641
676
302
349
622
733
439
221
469
737
565
305
402
661
713
294
329
632
756
433
301
522
734
592
247
426
647
676
329
342
602
771
415
287
528
750
567
253
440
646
685
284
332
650
787
418
296
525
746
559
239
447
657
675
294
358
624
775
382
307
539
742
538
348
413
654
668
291
358
619
748
367
307
535
769
565
265
461
667
655
300
347
640
797
361
303
538
767
533
280
445
652
647
320
350
584
785
389
282
547
772
522
283
436
683
661
264
374
613
746
352
305
559
785
521
277
463
710
641
255
399
640
729
355
301
553
796
467
290
467
687
652
261
399
627
727
343
313
565
767
479
271
473
686
650
256
409
635
688
360
348
541
766
513
324
427
781
643
246
427
616
714
325
339
556
767
458
277
481
725
662
253
383
658
685
377
294
590
751
509
250
495
714
648
257
404
632
700
314
338
611
781
445
264
527
719
577
269
420
664
709
332
331
575
777
412
288
528
709
606
277
411
657
704
299
337
603
781
439
288
502
728
593
270
433
648
741
296
335
596
812
431
254
533
714
563
263
422
647
681
327
345
578
758
391
327
495
740
509
320
410
566
686
315
352
620
745
387
301
509
760
573
212
486
653
669
316
377
622
772
378
279
517
756
560
262
428
672
671
260
379
636
734
361
277
578
735
559
268
467
662
662
279
363
615
760
364
307
549
769
514
263
473
664
641
296
409
640
701
364
286
539
763
506
281
458
686
644
259
391
618
708
356
331
528
811
518
252
452
676
652
279
396
622
737
333
270
561
762
497
278
471
706
640
234
403
662
731
326
307
584
765
479
271
511
684
647
255
389
635
743
368
329
554
781
441
286
485
714
645
264
422
626
737
315
333
590
757
429
310
512
717
572
291
421
641
727
321
338
577
762
463
280
496
736
623
281
393
659
685
333
331
587
751
458
293
497
715
604
265
414
675
664
278
404
614
772
433
315
538
726
578
273
414
673
675
314
357
584
782
408
282
553
720
561
273
421
663
711
321
344
609
766
404
278
513
750
553
269
432
657
654
354
360
594
759
389
283
515
780
554
236
451
660
686
270
362
663
762
371
303
534
764
528
265
449
656
664
299
379
594
834
363
321
534
781
507
256
459
668
662
274
379
628
758
356
296
542
785
506
287
464
631
643
292
385
658
762
372
294
543
784
489
262
456
687
642
254
391
613
740
375
299
587
792
484
269
470
688
636
260
390
646
738
337
308
572
776
476
288
477
732
658
254
405
634
739
301
290
594
765
476
270
485
687
652
223
416
679
734
332
311
592
732
493
285
477
684
654
267
412
620
736
326
343
587
765
492
247
505
718
615
249
431
653
714
304
340
602
757
460
293
511
692
601
279
439
630
706
328
334
602
767
428
307
522
728
590
264
424
654
690
279
345
627
756
441
305
499
724
590
245
418
636
685
323
350
589
787
403
303
522
743
568
267
428
639
702
301
330
578
820
405
284
551
746
570
250
418
662
671
301
363
600
769
378
320
527
742
582
252
450
672
650
277
367
613
760
377
293
528
770
521
243
466
663
667
303
350
660
764
315
314
538
807
532
265
428
648
657
268
347
639
759
331
273
563
795
525
270
466
669
623
306
374
611
762
348
300
538
767
480
307
462
689
655
252
400
599
752
331
317
559
766
511
267
473
708
649
251
396
594
740
345
318
536
777
474
272
492
686
668
249
384
657
732
332
302
522
734
520
283
497
686
664
249
398
652
725
346
329
586
776
449
282
489
723
641
184
425
678
707
341
325
553
820
446
279
501
708
647
236
405
646
717
311
303
644
799
424
266
527
727
609
246
415
662
694
300
336
581
785
439
286
506
743
592
238
429
658
687
303
344
547
790
448
249
530
735
563
249
428
640
686
319
345
598
787
397
308
513
754
555
244
464
657
672
311
349
594
774
401
298
514
747
557
255
445
633
675
316
350
613
778
373
316
535
750
533
276
441
648
680
313
367
596
747
377
288
531
772
552
259
438
652
633
295
395
612
775
388
287
524
757
534
276
446
688
675
293
380
606
733
388
297
548
773
490
272
448
653
684
284
367
616
760
345
279
548
774
509
267
455
688
655
267
369
628
749
338
333
572
768
483
241
474
711
646
263
389
639
731
346
312
572
755
503
285
494
685
672
248
405
633
698
316
348
557
753
458
282
488
705
638
261
397
643
694
346
316
573
778
475
273
508
696
678
261
423
627
684
370
310
584
780
461
297
483
703
643
241
423
619
708
343
320
566
844
474
254
526
747
588
295
439
645
722
282
274
619
756
433
284
483
764
595
308
431
662
693
322
304
595
780
431
272
505
803
513
292
474
617
675
346
316
592
760
487
278
565
733
540
286
449
596
672
359
337
597
793
372
318
489
787
557
268
420
663
654
291
348
615
732
407
319
551
744
553
286
414
656
671
234
448
604
779
383
300
514
739
557
277
434
678
666
264
368
627
769
355
251
534
798
495
224
517
729
620
306
404
630
740
363
289
538
782
501
254
479
635
652
362
338
670
764
343
280
541
757
515
260
506
647
681
281
370
619
749
359
300
537
800
491
226
501
682
618
299
391
610
752
328
372
518
756
512
298
476
688
654
252
400
630
720
322
324
577
765
477
260
467
721
648
243
425
683
749
308
313
587
763
465
240
507
706
684
250
391
666
706
301
317
578
749
488
298
524
702
639
274
405
660
706
289
389
575
756
460
241
506
676
658
186
457
667
702
361
317
606
783
441
235
500
710
597
298
430
686
682
336
328
584
781
431
255
545
692
610
264
417
659
695
287
358
591
774
415
298
498
724
572
270
472
611
680
353
320
572
799
377
347
513
738
538
283
452
625
691
330
399
574
751
409
257
513
748
585
275
379
652
732
344
328
632
747
389
275
513
782
529
231
462
633
710
289
375
602
738
336
353
530
765
501
308
416
672
652
303
377
606
757
362
287
561
698
668
249
449
645
630
318
368
569
781
372
280
557
769
494
265
472
684
668
271
412
637
743
314
226
610
824
471
273
457
657
679
239
337
670
763
333
267
599
764
533
274
473
672
647
247
419
596
753
348
242
585
771
458
337
464
670
674
314
354
652
709
357
320
560
754
501
254
463
706
645
241
455
631
736
332
260
650
760
483
242
523
721
639
199
445
637
728
302
336
586
757
463
264
509
715
632
283
472
631
756
333
316
563
765
426
365
471
748
617
276
413
620
705
287
363
576
788
475
231
495
808
579
242
448
655
693
315
337
606
788
400
262
573
721
582
261
425
657
660
295
338
646
744
494
306
458
686
661
274
426
658
630
320
355
610
754
431
305
499
790
516
284
431
666
706
282
346
616
745
441
309
522
720
541
335
412
624
705
318
372
589
750
395
297
550
720
535
278
430
649
656
299
362
616
750
367
248
575
747
502
305
394
626
675
295
402
615
757
387
310
481
801
480
283
467
664
658
289
362
653
701
383
232
586
736
499
270
462
648
637
281
460
575
763
349
309
528
757
512
250
448
681
658
254
378
632
749
335
306
555
792
489
274
405
708
670
225
438
627
744
351
291
573
751
526
264
471
680
629
238
376
686
745
294
354
593
748
458
302
463
726
653
247
374
670
727
339
325
570
786
468
265
476
696
611
281
428
635
712
333
306
574
751
493
319
494
685
661
243
394
637
712
309
382
566
758
484
250
503
764
583
283
394
654
754
307
353
600
785
484
264
490
722
610
259
394
719
683
293
349
590
783
440
253
491
738
636
234
405
654
679
311
321
616
791
428
266
499
686
637
258
436
666
705
279
345
594
788
422
305
526
729
547
284
430
672
663
267
342
607
773
420
269
511
709
557
276
404
660
708
249
371
600
774
410
288
529
755
543
249
448
630
680
300
317
671
767
378
298
517
732
586
256
434
665
673
280
356
603
742
373
323
562
773
531
267
458
651
671
278
413
630
761
383
297
510
753
552
295
454
663
686
286
353
582
769
395
284
547
770
499
266
437
654
660
305
334
726
754
376
287
554
794
512
265
456
691
655
209
396
632
753
377
335
560
766
515
272
473
683
640
240
402
646
745
342
271
554
842
417
299
502
685
638
312
392
634
743
323
317
552
751
524
299
484
683
630
263
405
636
731
302
333
605
754
443
307
489
653
694
243
413
648
716
302
333
568
761
486
294
491
712
643
235
352
668
676
290
308
625
824
442
301
489
725
612
241
412
649
739
316
328
590
812
419
318
507
673
620
275
460
655
686
331
322
572
740
462
272
501
716
627
245
407
667
721
279
335
614
762
382
357
478
713
588
261
422
640
684
320
321
632
766
428
267
507
719
533
211
439
655
681
307
335
598
746
435
266
532
757
557
257
431
654
676
316
356
555
785
396
272
517
790
552
250
448
626
685
306
321
672
755
379
281
536
745
534
250
435
665
676
296
377
630
749
361
286
590
726
600
253
455
652
648
296
363
605
775
373
301
540
783
520
280
436
624
687
278
381
609
759
334
281
531
803
503
271
466
673
637
265
383
639
726
382
276
528
779
500
297
458
685
664
270
391
620
735
341
276
576
747
479
231
463
750
674
290
423
645
729
322
297
530
754
501
282
471
687
634
289
410
573
752
329
305
578
771
507
271
473
683
652
271
401
621
774
335
315
573
744
472
293
442
687
614
311
378
674
728
312
310
579
812
444
287
472
764
621
257
400
658
730
316
323
563
797
454
251
560
706
612
266
417
651
740
293
347
595
766
450
261
513
728
588
279
429
648
695
322
362
603
739
478
291
551
735
585
251
434
643
688
311
348
602
772
407
275
566
747
576
256
414
663
678
307
342
606
777
398
325
476
749
586
258
414
677
671
306
378
600
779
413
284
510
747
561
270
417
685
667
309
357
630
752
372
294
539
755
542
306
435
632
678
307
372
613
765
373
288
529
779
540
254
442
673
660
265
427
644
757
394
296
526
764
528
235
457
651
678
291
374
611
757
387
286
521
759
591
269
457
661
684
262
365
650
700
380
297
539
746
535
276
467
666
669
277
385
625
726
343
358
527
781
501
217
478
685
675
271
390
610
755
320
278
594
774
509
264
463
684
654
260
398
628
736
341
344
515
731
518
208
531
718
630
250
383
604
720
335
318
512
740
482
212
493
719
645
271
434
611
760
325
326
568
779
450
296
501
685
630
235
428
660
725
310
332
570
761
444
270
493
717
648
241
398
673
714
365
315
556
839
475
267
491
717
606
213
439
649
717
310
347
589
771
444
259
490
726
647
284
410
663
711
275
316
604
772
436
298
488
725
566
252
449
657
669
306
366
571
791
436
305
503
671
635
251
437
656
694
300
350
594
737
435
297
532
725
584
260
428
657
657
333
370
604
768
412
299
521
753
565
269
402
630
718
331
321
638
776
385
287
517
749
541
304
435
650
661
303
365
616
751
417
289
554
752
530
213
456
659
676
310
363
606
750
377
291
513
771
549
248
422
678
662
302
382
611
739
402
303
545
751
554
276
423
666
656
308
382
613
762
344
313
542
777
511
304
450
657
657
310
390
630
742
375
296
513
783
527
257
449
676
637
316
364
619
756
378
298
547
763
492
314
481
667
659
268
363
659
732
340
311
547
783
479
289
477
685
664
280
381
622
723
370
304
567
769
470
229
538
687
651
259
396
600
717
326
295
583
775
482
244
469
738
647
248
385
660
735
314
318
619
755
512
248
493
645
641
242
376
609
755
332
291
606
761
474
271
502
714
626
227
456
682
720
313
350
577
753
454
304
498
724
627
261
406
641
723
312
354
583
746
473
325
500
719
607
267
410
649
691
316
341
589
779
463
282
494
717
648
261
415
626
686
336
374
590
774
451
267
484
691
600
259
429
683
685
294
341
608
784
434
272
512
748
598
250
411
685
687
283
332
611
784
408
268
535
739
559
231
469
631
695
298
337
617
750
404
266
494
819
564
254
440
658
686
284
348
593
747
392
297
536
729
576
270
419
656
675
285
366
613
750
374
301
547
754
550
248
467
663
654
320
334
615
779
385
300
508
756
546
272
427
663
672
307
362
597
775
373
303
536
760
517
265
459
587
672
306
385
623
754
376
286
520
753
533
272
452
685
642
298
361
641
766
361
308
517
755
548
266
443
687
646
258
383
635
743
372
300
547
765
505
266
472
696
642
263
383
634
752
358
296
551
776
501
269
474
682
629
251
404
657
735
361
311
550
761
484
228
510
685
629
270
395
633
736
340
305
529
788
506
263
490
713
664
244
392
636
684
282
317
569
782
489
306
473
691
671
264
403
656
741
404
280
566
795
499
262
475
624
658
280
419
603
748
328
296
573
777
487
277
439
730
655
227
427
663
725
278
331
624
786
462
280
514
732
603
241
415
643
685
275
357
580
759
480
294
506
710
594
245
411
676
698
289
315
596
796
468
247
559
717
624
260
411
656
730
286
342
496
893
458
279
547
725
621
250
400
638
706
298
332
593
777
440
283
504
731
584
278
453
683
713
353
318
581
789
421
259
479
748
579
280
420
665
692
333
331
595
761
432
255
523
741
581
249
453
660
685
359
322
629
784
423
264
525
755
568
274
425
654
665
292
374
598
777
409
270
534
752
544
248
438
674
663
297
387
637
770
390
283
537
756
538
212
448
673
678
301
367
609
761
376
279
526
769
543
260
440
643
678
309
318
685
786
377
301
538
750
515
239
438
675
686
303
383
619
768
360
336
530
767
459
331
452
660
659
314
381
591
755
361
305
538
784
511
265
454
664
648
294
400
622
753
368
290
570
801
498
257
434
709
641
243
380
643
752
347
285
553
753
506
271
465
706
645
270
400
629
687
374
317
556
787
505
291
450
677
655
267
353
657
701
353
312
562
777
498
296
486
649
658
279
394
622
736
335
293
553
789
469
268
509
700
629
247
381
581
774
316
303
551
782
497
257
476
694
669
264
390
623
744
328
325
557
763
455
256
524
738
639
256
414
641
714
306
334
580
783
460
253
490
713
685
230
411
627
771
264
358
570
806
393
293
464
686
679
240
432
648
707
313
327
588
792
440
344
499
718
633
272
430
647
701
324
302
599
782
430
281
501
710
630
273
420
646
687
301
359
575
781
459
273
507
687
701
219
401
684
705
311
318
617
782
454
269
513
713
596
255
438
651
686
310
326
587
791
463
213
505
772
593
227
414
649
685
286
359
612
768
431
278
506
730
585
268
452
649
712
301
334
608
841
395
292
500
761
557
250
405
680
658
359
351
583
776
404
290
533
727
553
284
430
650
690
322
371
587
762
399
250
568
757
557
267
434
661
617
292
363
604
784
393
301
522
747
567
271
428
656
661
312
366
615
760
372
289
507
740
527
278
443
660
666
290
359
589
740
442
306
509
771
531
223
453
639
658
306
372
609
715
392
308
531
773
535
221
450
653
659
300
395
615
761
326
305
550
770
506
258
472
650
652
255
394
576
763
369
302
549
765
510
259
451
671
668
301
368
634
746
374
289
523
781
533
264
457
685
625
250
422
627
728
355
333
531
752
535
273
466
675
664
257
377
622
747
352
334
578
771
498
293
470
688
610
211
431
629
737
348
331
535
769
502
232
499
702
644
261
418
635
711
324
323
563
760
494
257
491
679
666
240
394
634
742
334
287
559
770
484
278
474
684
681
270
384
617
713
347
280
574
798
486
275
501
685
651
245
402
603
809
318
297
577
784
487
277
459
689
671
257
401
646
720
311
338
582
787
455
317
495
689
665
246
422
633
723
290
317
597
788
461
270
504
709
637
251
408
644
713
305
342
586
778
466
265
470
746
648
258
430
655
696
305
315
586
774
480
279
502
706
635
245
430
640
723
314
328
561
804
441
267
490
731
643
258
415
643
721
343
339
565
803
435
261
520
713
626
261
434
642
693
311
331
602
777
445
298
499
755
557
292
416
675
686
307
313
626
782
427
278
515
736
571
263
431
661
694
281
347
577
754
455
296
505
727
581
227
476
646
686
311
344
580
772
413
275
540
736
559
250
427
647
684
309
381
556
783
422
283
512
742
526
296
425
622
710
306
332
603
758
398
293
518
756
544
260
456
654
657
304
358
607
740
405
307
504
755
561
246
473
634
691
329
367
606
766
401
294
521
761
570
227
446
652
630
346
380
590
788
372
293
548
768
533
265
441
667
652
340
331
625
777
350
320
505
796
533
265
422
643
674
314
365
618
759
373
296
526
760
534
280
449
666
655
285
386
617
735
373
314
521
759
555
257
449
676
645
272
365
625
745
335
367
598
784
511
264
440
679
661
250
386
630
758
360
285
538
775
517
267
461
670
651
277
371
635
746
345
315
529
805
482
298
463
682
663
248
363
632
741
348
285
546
811
489
285
457
687
663
248
408
615
753
345
305
549
760
496
268
473
685
658
248
406
622
736
345
316
567
764
496
236
508
693
649
264
404
632
718
342
316
568
787
486
278
438
708
661
305
406
626
727
316
321
564
744
499
273
481
683
645
281
412
633
699
360
265
575
787
473
267
508
687
668
247
401
675
730
305
301
591
754
521
282
488
715
642
251
381
632
755
347
328
612
782
442
258
491
684
646
259
407
685
713
306
320
605
781
467
273
493
719
648
231
441
630
735
330
324
569
776
480
282
497
734
591
292
406
651
730
306
347
564
777
455
277
522
699
635
246
426
641
719
293
349
587
792
440
257
533
687
619
263
434
634
736
282
325
611
745
472
260
494
723
596
268
416
644
687
316
318
605
787
421
313
525
730
546
271
428
653
667
313
329
610
783
426
259
542
752
564
238
435
661
709
289
358
607
767
411
266
549
739
575
275
449
670
674
291
361
596
791
420
306
512
751
564
253
419
649
683
298
367
594
776
398
294
528
755
547
274
430
656
677
296
370
603
763
403
295
515
751
547
263
432
633
690
293
352
610
763
391
320
519
762
544
264
430
652
679
300
385
615
766
369
303
525
757
542
263
436
675
639
281
426
574
789
386
278
510
768
542
242
449
667
667
264
377
600
759
369
306
533
763
512
239
449
669
660
307
376
620
761
345
313
531
768
527
263
466
649
658
293
373
614
750
363
299
531
787
496
250
466
684
677
231
389
617
756
379
299
551
774
530
253
450
684
658
280
379
618
728
358
307
549
775
512
293
439
684
640
274
373
648
759
345
307
514
809
492
313
471
708
651
242
392
599
756
383
311
599
740
472
261
464
686
640
258
392
635
744
337
295
570
734
502
250
435
751
634
263
404
608
741
333
266
554
780
498
281
482
684
641
268
416
668
742
328
322
570
735
491
248
511
685
684
221
390
669
708
322
333
568
738
475
277
488
696
644
249
425
616
711
357
315
579
757
453
268
507
695
642
242
483
626
714
341
284
594
767
455
271
484
713
655
286
376
673
760
348
288
578
767
452
218
582
710
622
252
436
632
642
379
246
646
763
483
286
493
709
622
214
461
636
685
331
341
576
784
456
265
491
694
652
252
418
648
744
285
344
644
773
457
280
480
737
599
286
420
655
706
298
335
584
768
470
261
477
720
619
221
425
636
731
295
338
602
776
414
282
509
720
606
253
454
649
702
298
357
577
774
450
279
526
720
577
295
359
682
717
305
364
584
773
425
255
504
744
590
245
431
653
687
282
363
619
761
404
360
478
769
571
263
405
670
707
293
354
592
770
435
269
517
754
567
267
438
621
699
341
351
583
777
429
282
520
755
558
282
420
643
664
322
367
585
755
422
294
515
717
559
274
457
647
686
306
332
592
774
391
297
549
734
556
226
491
612
655
239
379
575
737
432
281
524
743
545
254
424
641
698
299
377
604
755
394
282
506
780
495
346
421
631
685
306
352
590
766
360
313
515
740
567
289
423
643
683
309
361
547
793
395
288
531
742
559
274
451
656
637
288
386
602
749
438
291
535
792
518
269
453
631
697
314
342
598
780
373
284
526
821
500
304
432
674
645
305
372
625
747
377
311
529
767
507
282
447
684
636
292
407
574
771
364
284
538
771
503
259
490
687
633
281
347
611
723
378
311
540
779
511
253
456
707
644
288
389
628
733
341
313
491
840
504
268
459
680
654
260
369
617
793
314
332
566
724
495
271
465
686
666
260
386
607
750
334
300
578
768
518
225
504
686
621
345
351
651
710
348
293
553
760
551
248
473
685
657
240
402
636
741
372
287
563
761
508
212
480
732
671
231
443
631
724
339
298
540
782
493
274
477
684
626
295
390
639
731
333
295
580
736
527
258
441
701
661
280
390
665
735
373
264
566
750
497
276
487
712
654
237
424
652
713
321
305
567
758
485
281
463
687
684
285
390
639
711
316
305
569
764
483
268
475
751
620
293
366
634
734
329
334
583
784
428
308
471
686
700
237
399
632
730
313
311
614
777
469
265
493
703
649
253
413
686
682
336
312
578
811
442
302
507
717
651
244
384
640
719
329
307
616
766
478
229
524
721
631
258
436
655
704
315
296
610
795
476
260
496
731
580
264
477
637
690
312
322
562
789
443
288
494
740
605
253
426
650
721
298
298
572
776
483
268
503
760
576
265
421
654
711
307
331
577
780
456
263
518
727
575
252
434
665
702
268
325
657
768
430
232
558
698
577
277
408
663
683
311
358
574
784
444
262
506
685
615
246
411
678
667
324
288
630
827
425
278
504
726
569
259
407
646
705
318
323
599
772
415
291
530
694
590
317
448
650
719
309
315
586
781
425
284
508
739
532
281
432
668
698
301
353
580
774
456
266
528
741
532
232
406
659
705
301
342
600
762
411
296
506
687
572
262
430
640
691
307
328
570
788
428
288
508
746
596
241
454
651
699
286
350
570
788
416
287
536
741
515
304
410
673
637
351
333
577
798
422
261
548
773
557
230
458
665
683
278
366
585
780
413
236
599
733
576
271
407
699
646
304
331
632
750
395
297
489
778
564
251
410
627
703
272
383
599
719
447
301
520
790
528
276
412
632
677
312
367
593
777
354
286
559
754
598
245
423
651
662
360
290
684
754
368
311
552
720
517
282
451
648
663
306
378
585
757
426
288
538
728
550
327
396
685
663
266
417
586
749
401
297
522
758
540
266
432
685
637
289
377
621
759
351
314
531
709
537
287
441
690
672
287
353
647
755
362
254
569
771
512
270
419
684
662
280
359
630
763
390
287
534
773
490
287
471
638
644
270
342
642
758
385
283
518
774
526
276
468
667
674
290
348
643
772
360
313
519
745
546
276
451
675
663
284
349
659
737
355
304
570
761
506
243
467
685
654
279
384
611
782
327
285
553
775
495
264
442
686
673
256
418
623
755
361
285
554
772
507
266
459
686
661
273
378
628
741
352
311
533
795
499
254
479
680
672
248
393
635
742
347
299
529
787
508
258
466
683
679
224
418
615
787
330
299
538
747
498
225
523
683
659
269
377
643
750
343
298
557
774
494
276
469
685
652
285
374
617
729
317
296
581
750
509
283
461
685
685
242
432
621
747
342
287
565
760
524
239
485
665
673
273
404
658
721
320
345
571
760
488
306
442
711
668
246
421
642
724
298
305
570
758
483
285
464
685
696
246
385
648
715
321
277
624
747
451
272
483
686
652
271
434
633
746
326
285
566
807
451
227
523
716
603
256
393
599
766
330
329
537
777
476
285
472
711
662
262
381
650
702
367
314
542
771
474
262
502
737
646
216
427
653
722
328
320
571
767
491
251
496
746
646
234
427
650
723
311
301
593
788
472
287
521
703
648
247
420
627
721
328
336
542
767
463
333
466
724
657
264
412
637
703
326
318
584
782
463
309
493
685
643
220
453
654
705
267
332
605
790
454
290
482
688
622
210
473
659
719
304
294
576
765
464
297
493
713
649
256
405
649
726
279
316
570
783
472
287
509
667
689
235
418
662
686
296
307
605
795
451
282
507
687
639
232
393
633
746
311
309
591
742
509
267
478
687
662
250
386
685
697
298
342
608
773
438
265
494
733
579
258
422
655
667
341
313
604
758
526
268
489
684
592
244
428
631
740
267
395
568
799
433
280
512
701
600
239
415
688
695
260
348
584
792
435
196
660
686
624
263
440
634
660
303
338
618
778
446
251
497
710
644
262
439
658
665
293
324
646
773
462
269
512
686
583
262
418
644
720
310
338
575
776
430
262
538
770
614
232
447
670
666
299
375
579
760
475
233
543
743
582
266
417
643
701
291
276
648
778
389
271
545
729
579
251
434
637
680
326
337
598
761
419
292
508
751
539
283
414
660
658
350
396
609
770
422
299
508
746
551
295
432
643
719
306
342
593
775
404
276
509
774
505
261
452
662
637
322
370
616
744
404
303
528
755
551
285
429
646
631
262
418
560
785
430
265
536
742
556
242
449
660
659
372
341
608
782
362
323
529
747
548
254
447
634
650
368
363
583
790
394
287
513
763
536
249
429
640
679
310
346
611
730
377
322
544
773
524
275
400
660
647
328
361
617
764
391
298
507
764
521
221
514
661
678
303
379
496
770
410
308
523
764
566
240
463
612
685
352
361
598
810
366
294
508
763
533
283
432
615
673
325
333
617
747
444
286
512
768
542
259
441
663
682
277
364
591
775
379
303
515
752
523
287
419
626
721
312
357
609
758
370
297
518
770
537
262
441
654
673
291
373
615
771
349
307
519
744
547
275
432
627
659
327
320
637
754
373
313
518
776
519
286
419
657
660
304
393
615
750
384
299
518
734
517
286
437
655
716
304
401
589
781
398
297
523
765
533
272
435
658
671
307
386
602
760
367
227
527
765
539
269
473
665
653
279
369
609
769
371
290
527
758
547
271
426
653
668
336
372
655
793
274
317
551
771
508
279
456
653
670
258
386
649
731
414
300
548
788
508
249
468
610
648
317
389
631
748
322
289
559
786
503
294
447
669
649
280
372
623
746
371
272
559
777
543
239
409
679
695
256
432
632
760
338
301
527
773
513
275
467
662
646
272
396
641
726
362
316
547
780
488
273
476
672
648
285
388
622
745
343
294
550
782
520
251
463
648
724
247
365
646
775
322
300
549
770
491
272
460
669
677
216
414
636
746
352
315
541
767
522
250
474
689
651
276
388
629
703
379
326
542
774
502
250
499
663
626
304
407
628
748
331
327
548
710
527
267
471
715
654
270
387
597
760
364
279
579
791
492
291
468
683
642
247
410
606
735
357
287
576
730
517
209
511
685
656
258
357
629
726
321
289
569
782
486
277
465
683
654
266
391
649
724
294
344
608
744
522
265
479
688
645
251
382
630
740
295
286
587
778
510
263
470
733
643
256
406
638
746
314
296
552
782
498
271
472
685
647
273
393
642
725
365
309
555
761
512
262
472
683
672
250
406
639
738
324
313
549
748
533
279
482
689
661
237
394
611
756
349
310
574
766
495
254
486
700
630
287
404
637
734
310
313
574
742
531
252
471
744
629
255
432
639
728
336
306
581
772
491
295
478
691
658
257
413
619
749
337
309
555
787
506
215
486
724
636
279
417
644
710
302
350
562
774
483
300
494
715
654
257
400
632
727
312
319
530
774
502
281
464
742
654
284
359
668
707
343
334
582
778
477
259
531
701
657
242
395
651
710
282
361
625
773
500
265
502
685
647
244
407
646
753
334
301
589
770
465
293
486
685
683
246
401
635
737
328
288
589
756
469
265
492
722
638
242
423
624
715
319
312
585
775
494
278
497
693
648
240
407
668
728
327
297
580
755
509
252
494
722
647
238
402
668
728
305
326
590
786
428
292
489
689
651
248
400
659
709
325
313
602
763
466
268
534
703
640
251
372
662
710
309
318
599
780
438
262
508
685
673
272
420
638
743
285
329
584
791
457
267
524
686
646
247
436
643
727
307
319
589
779
460
265
486
737
637
283
388
648
676
299
361
593
780
466
279
486
686
645
249
417
672
684
