501
155
451
541
641
584
792
610
587
690
296
499
629
600
567
454
407
658
450
453
630
496
646
444
193
516
551
527
451
50
690
81
502
494
660
498
452
485
492
534
579
507
443
860
572
464
530
551
657
371
542
467
411
505
531
735
741
607
655
536
572
538
454
548
362
481
445
635
392
549
579
429
495
516
552
533
545
378
690
443
469
466
885
516
475
488
664
599
479
447
405
664
320
498
323
543
245
486
409
446
698
455
629
540
593
535
394
444
469
482
414
585
690
687
498
588
501
435
593
522
474
552
541
493
485
515
681
542
526
511
570
400
534
646
521
461
1023
320
858
635
227
504
425
684
339
673
50
588
304
603
218
593
669
497
239
502
568
378
526
59
652
176
636
346
496
694
463
749
203
973
484
280
424
1023
772
368
389
632
627
420
554
391
687
555
360
442
1023
612
677
515
555
552
468
454
527
636
606
497
604
524
619
460
513
80
651
556
802
485
641
417
690
503
681
625
432
510
478
661
465
356
559
143
534
487
0
706
566
99
674
632
656
498
566
508
579
563
467
453
1023
520
417
391
749
622
383
576
524
488
490
468
0
624
54
492
527
128
642
485
683
505
621
664
468
495
571
555
612
494
564
688
495
434
541
694
470
524
552
562
477
623
618
528
576
508
693
527
535
727
528
471
580
541
626
496
637
565
508
488
592
562
515
374
103
671
492
92
663
626
502
514
723
504
518
675
504
469
619
577
484
487
560
645
459
496
586
614
506
505
87
699
401
624
547
482
569
471
787
477
565
799
542
451
596
536
712
475
522
739
449
526
521
639
603
456
439
489
560
546
464
538
645
470
540
464
634
588
463
432
546
659
610
498
620
678
482
533
517
585
589
468
450
624
603
470
500
513
603
529
445
664
575
493
495
0
580
485
540
489
590
557
466
692
503
551
796
499
496
627
534
466
472
514
827
439
559
610
532
485
516
0
643
455
693
522
532
531
531
656
560
578
697
533
493
596
557
679
480
643
703
484
508
579
636
416
487
0
589
498
480
552
560
527
499
716
504
535
679
497
494
568
483
517
477
533
697
428
0
690
587
495
496
0
580
469
438
556
590
582
478
697
575
482
487
497
472
621
487
652
519
518
818
464
573
544
595
646
439
446
708
532
532
496
499
698
368
521
521
538
656
498
433
620
499
475
467
492
512
469
531
554
504
473
610
463
15
738
490
522
543
698
667
0
698
529
419
517
0
586
0
508
510
46
611
454
497
533
564
547
518
553
580
531
615
497
569
606
608
0
845
520
490
487
0
605
468
472
442
565
684
455
751
524
442
468
369
871
567
697
507
534
607
567
608
544
649
464
480
450
470
544
505
650
542
543
615
457
567
551
554
577
545
478
644
433
484
528
588
568
492
548
532
605
457
514
484
566
511
501
425
619
587
617
475
556
519
618
472
386
675
633
469
499
555
642
400
35
608
515
508
463
0
633
418
604
528
627
480
623
679
552
513
703
501
500
537
570
497
503
525
604
492
0
643
581
491
481
6
614
478
484
576
541
514
517
478
534
563
669
475
443
676
495
467
501
613
609
468
553
531
643
482
412
469
700
494
556
560
545
530
417
652
698
534
509
539
33
625
500
0
753
547
563
542
0
634
553
6
623
481
601
637
668
549
507
698
453
492
644
514
675
564
741
514
567
778
534
557
561
498
702
578
540
819
460
739
551
550
563
537
470
499
666
497
542
386
700
467
307
701
744
591
536
620
529
476
504
508
547
588
474
463
600
581
469
506
500
646
531
523
553
612
472
462
0
610
480
408
595
566
543
478
763
477
519
657
522
502
612
551
474
490
565
628
482
487
554
592
477
476
473
61
550
170
539
576
544
501
668
543
557
698
496
484
676
535
484
478
510
537
503
0
564
604
467
516
0
557
454
555
556
547
566
457
809
570
310
503
493
505
624
438
463
487
530
642
481
468
547
541
464
452
500
552
500
675
533
563
668
501
515
552
565
542
523
487
583
560
495
489
520
601
433
522
638
314
506
495
4
598
209
474
480
148
547
559
489
496
585
488
498
371
696
519
438
522
562
590
368
505
697
588
298
543
516
430
508
517
511
595
468
606
430
560
471
440
467
411
581
452
458
565
476
491
466
486
487
460
500
760
552
674
502
525
532
699
532
664
376
543
654
407
647
0
658
454
637
464
860
494
756
567
835
506
433
632
687
470
463
345
443
497
574
811
567
817
393
517
478
493
562
406
696
718
672
534
799
630
536
628
430
486
45
627
477
434
427
866
474
417
458
590
359
607
377
535
547
353
546
537
534
565
234
156
460
540
359
499
316
570
479
417
333
525
532
506
495
616
432
1023
698
463
686
386
611
714
734
490
408
442
507
389
551
364
482
558
430
356
508
814
470
503
697
579
422
566
401
482
597
337
516
445
683
383
719
472
830
431
449
743
0
1023
439
362
613
497
484
427
649
482
573
664
557
524
655
498
670
515
770
526
868
490
806
743
477
490
0
691
449
651
576
515
612
474
675
766
656
313
580
585
920
403
522
682
451
574
277
510
529
532
452
618
601
623
474
511
729
641
537
419
393
503
484
373
537
609
554
634
450
429
508
564
387
501
465
539
438
394
481
498
658
304
724
556
501
456
529
571
502
495
498
531
598
477
492
498
561
475
662
635
713
512
496
712
456
868
471
486
461
510
495
414
535
503
533
381
491
477
596
491
469
445
544
486
457
439
544
624
661
486
518
605
654
407
647
646
582
442
484
533
440
414
669
525
709
376
484
653
537
469
693
483
709
548
414
654
438
800
411
459
494
554
493
467
493
560
502
533
485
515
565
434
455
668
503
493
494
546
638
469
539
508
461
532
445
491
653
583
518
456
517
541
541
455
647
523
679
456
552
455
584
539
469
513
540
524
490
507
533
569
456
488
471
558
541
631
511
597
506
474
478
536
563
472
501
479
561
515
489
529
576
505
513
506
497
615
525
457
497
582
473
459
572
531
600
529
464
664
519
441
477
501
529
494
476
515
598
488
488
544
529
567
472
494
469
531
506
639
498
546
566
453
482
485
574
461
506
480
568
515
474
499
581
489
531
532
497
594
452
498
457
518
555
508
491
598
524
485
487
550
571
462
491
485
566
515
480
497
505
552
531
509
516
576
510
479
464
588
529
526
544
505
519
463
531
550
561
476
503
479
545
524
469
490
589
525
447
518
560
537
466
461
533
685
281
663
586
480
579
452
541
574
483
513
468
507
564
495
492
484
562
526
483
504
515
580
478
497
477
607
553
489
533
571
538
500
491
497
601
494
509
492
603
476
484
494
566
515
485
521
520
579
486
512
514
566
535
472
489
563
524
522
480
538
585
450
498
483
604
509
482
507
598
495
502
500
564
534
484
498
490
583
455
511
498
588
516
485
469
568
571
453
489
546
603
503
504
488
583
504
579
489
550
568
426
508
501
596
470
512
509
546
515
475
506
594
553
480
507
494
644
417
556
508
604
476
459
522
545
594
477
485
543
582
498
460
580
587
497
447
517
540
553
459
504
504
630
472
719
500
580
500
456
509
544
567
482
497
511
478
463
484
515
578
481
463
551
560
585
457
498
538
597
475
496
511
611
509
472
511
562
582
476
487
522
598
475
541
521
650
484
526
470
700
540
469
498
507
594
480
546
499
640
504
479
500
545
564
468
501
513
554
466
490
514
573
519
479
514
583
540
510
473
537
631
469
496
500
607
505
469
495
550
558
472
495
535
620
460
501
517
574
525
466
507
576
544
473
523
513
568
471
446
463
573
508
464
504
560
521
452
507
625
558
477
478
486
567
471
469
545
553
530
469
479
503
587
470
486
454
613
482
483
494
564
551
465
494
543
571
489
495
501
575
497
487
506
580
554
460
509
553
560
473
483
494
566
514
484
510
591
518
493
500
531
545
478
480
483
567
479
465
502
549
510
440
498
699
535
510
476
480
566
475
480
517
555
537
464
480
544
557
471
468
477
509
498
510
424
586
506
466
497
541
524
441
588
501
499
440
428
677
488
796
477
482
585
613
420
745
473
774
494
483
471
569
476
457
454
537
580
485
697
525
449
496
465
526
533
534
486
541
562
481
452
484
492
570
664
476
708
572
783
432
583
512
556
435
421
478
578
526
533
485
588
526
447
545
499
562
463
506
497
577
442
484
560
645
500
462
506
543
566
466
579
488
584
520
469
510
577
499
456
540
525
567
456
514
493
583
478
483
522
561
525
465
513
565
556
471
482
547
577
486
497
529
582
497
476
515
561
535
468
486
502
575
462
492
485
597
506
463
508
559
570
468
476
522
605
482
516
495
546
508
429
506
563
567
491
505
504
603
489
510
488
628
498
474
508
554
545
479
489
496
599
497
492
513
591
501
481
505
557
606
449
481
497
609
475
484
514
592
475
471
504
548
549
453
504
498
627
481
468
501
561
537
470
500
566
568
436
499
492
612
479
479
530
589
507
475
515
568
544
488
484
501
617
462
484
516
601
502
468
506
567
586
455
511
513
604
461
497
511
631
493
481
506
558
541
476
524
501
600
460
492
506
577
508
464
526
587
566
457
494
513
627
456
489
558
542
497
476
506
562
565
491
483
519
623
461
482
495
589
498
470
503
626
580
461
515
524
567
445
510
508
613
492
480
510
523
604
496
440
529
645
433
519
433
637
591
443
535
594
512
442
465
507
663
446
499
538
573
519
496
510
549
563
453
482
517
603
507
501
501
620
514
468
474
554
571
447
510
525
595
500
498
533
545
530
516
496
519
551
470
508
507
602
502
467
540
568
522
472
450
625
626
455
523
542
541
445
520
444
657
502
490
503
512
557
478
458
491
588
533
479
488
577
553
426
526
537
595
534
509
497
504
546
530
439
659
526
514
447
506
559
447
536
555
576
493
496
451
534
481
518
479
508
658
480
427
489
607
476
487
531
584
508
550
464
523
622
509
382
478
629
496
496
481
649
585
399
465
608
497
488
512
506
546
483
578
430
522
501
595
411
577
471
582
549
509
598
480
452
451
506
547
476
550
570
511
522
515
460
579
538
461
410
592
659
493
612
549
512
549
436
509
634
457
541
442
544
499
510
559
474
567
500
496
526
597
545
527
456
530
512
453
507
577
518
509
486
548
598
458
435
492
599
467
550
511
539
489
448
492
484
513
488
635
317
667
619
508
490
502
469
412
458
528
578
532
468
459
583
637
526
481
560
610
437
454
488
543
489
491
432
544
735
630
460
624
560
372
451
582
520
506
617
469
524
485
498
503
515
554
486
483
476
646
432
578
453
545
624
470
557
549
550
475
481
566
573
440
545
534
560
516
586
462
524
593
528
483
528
602
487
536
508
599
492
549
464
547
478
648
483
540
542
484
516
467
568
546
494
539
545
528
503
464
536
589
456
477
491
605
501
500
476
503
527
604
474
504
664
432
479
484
635
495
488
492
565
472
453
508
500
616
498
484
488
556
518
531
454
557
501
498
609
488
621
491
466
473
514
512
509
503
584
535
424
514
515
522
502
537
493
563
527
452
494
627
451
507
505
529
541
450
513
562
544
564
453
450
485
597
572
492
643
493
570
504
454
562
503
518
486
549
539
491
490
554
543
493
499
514
684
501
490
522
458
538
546
450
517
516
527
486
417
670
511
511
570
476
464
602
698
477
597
465
439
536
524
479
538
487
596
461
455
515
645
516
462
633
482
576
515
499
510
494
505
516
370
520
680
536
441
508
583
480
484
451
529
524
510
635
447
595
494
483
465
607
527
466
482
510
648
493
488
553
561
389
525
541
551
492
511
465
543
495
470
502
551
609
470
472
511
719
395
491
485
550
541
456
466
622
597
483
503
491
529
511
498
335
620
622
470
485
564
638
457
469
497
604
491
480
477
578
536
544
467
557
469
520
550
486
614
506
528
480
567
514
527
474
601
501
474
519
501
528
479
482
508
567
524
499
507
617
511
483
562
489
551
478
486
491
567
501
526
523
514
545
496
472
648
527
538
569
496
530
525
550
494
560
544
472
486
498
589
505
488
460
602
479
487
551
552
556
460
481
529
509
474
517
461
567
535
489
487
514
580
480
502
542
643
455
480
490
575
525
424
523
530
527
482
587
503
599
458
493
507
546
484
603
526
537
612
506
526
495
618
471
512
444
589
458
524
515
586
528
467
501
516
592
514
495
504
549
586
519
495
573
552
528
481
489
594
458
587
533
559
494
503
461
492
502
482
476
536
555
470
528
468
565
493
594
447
562
479
500
548
485
622
498
486
501
588
528
471
477
493
566
462
488
548
631
493
464
503
567
456
491
550
632
539
471
556
500
553
476
487
524
663
466
473
492
518
528
496
500
550
565
450
507
524
634
476
524
503
553
457
564
473
511
564
479
511
485
588
498
550
504
508
506
536
541
536
581
456
477
516
550
449
517
568
537
508
478
539
475
595
545
485
467
582
507
480
492
585
525
459
552
456
585
517
486
550
598
506
544
500
482
585
493
490
606
509
608
427
455
555
630
493
457
593
516
404
473
717
543
505
502
527
564
449
462
453
699
506
473
538
514
527
463
628
445
583
524
453
477
493
498
495
601
508
483
551
534
451
618
512
542
460
614
483
451
499
551
537
471
612
455
558
543
459
444
646
514
479
453
558
594
451
490
497
623
523
434
509
609
509
518
459
495
593
376
492
579
648
514
517
503
499
474
463
522
545
628
477
429
531
705
483
455
458
529
506
425
479
585
577
436
497
519
610
437
485
539
493
551
572
472
557
659
452
469
509
538
472
615
457
567
518
516
514
609
540
566
451
509
626
431
495
425
600
580
439
543
502
560
453
503
492
692
481
538
454
493
595
454
472
697
527
452
465
595
480
627
555
438
549
619
393
457
562
639
500
495
473
624
460
472
506
464
561
621
508
502
589
496
490
472
556
578
469
483
539
537
483
492
693
549
459
504
585
600
460
484
573
593
538
520
453
550
480
479
473
460
605
507
589
476
542
559
468
413
473
645
491
550
557
527
456
472
530
698
503
555
482
496
499
417
475
516
523
444
577
561
577
622
473
459
491
531
444
538
615
562
483
497
480
566
496
550
491
500
668
467
488
483
404
529
661
462
547
577
502
448
559
567
454
550
441
459
536
527
460
549
564
493
474
558
499
486
522
504
603
444
475
465
697
548
438
566
540
481
482
487
502
654
445
648
467
467
621
465
489
664
438
463
635
531
528
425
503
539
507
477
502
491
568
665
464
467
572
497
450
588
370
638
550
460
491
507
570
449
567
525
617
497
493
420
543
557
527
475
630
547
511
472
476
637
496
517
404
622
492
410
597
495
554
483
503
500
565
490
536
505
567
459
491
549
566
581
480
508
476
698
424
501
511
569
533
442
478
545
553
496
495
528
538
544
572
498
617
503
477
516
475
527
498
508
533
597
531
496
586
495
518
544
516
506
571
458
526
511
521
473
522
521
521
540
569
497
495
582
545
455
525
554
446
554
463
597
585
591
451
508
606
521
452
611
535
489
528
515
563
528
499
492
541
546
466
508
559
523
544
535
472
528
518
522
465
523
649
445
495
561
494
563
455
470
629
513
486
600
487
503
477
543
593
515
462
574
496
546
519
473
508
541
698
432
541
561
546
423
505
551
502
543
575
435
585
593
470
471
422
673
432
480
396
641
592
382
472
683
574
503
437
478
527
438
578
500
609
458
549
460
473
521
455
542
571
535
417
476
471
515
571
486
514
614
503
496
510
525
571
516
493
492
584
465
501
484
598
560
516
461
551
511
512
563
466
665
547
446
406
632
480
444
486
539
592
475
510
518
598
544
479
490
502
509
507
500
574
585
461
496
463
611
500
452
477
635
511
474
488
607
508
543
476
583
651
462
484
448
474
612
462
477
526
671
488
492
450
627
587
345
504
545
555
379
500
608
468
481
481
570
652
469
515
573
605
423
434
492
550
529
510
567
459
536
527
436
488
523
630
547
482
521
586
500
462
504
643
512
524
529
522
498
474
540
452
510
580
502
470
578
466
522
445
660
562
503
539
561
499
443
530
502
640
525
490
445
592
473
455
500
605
535
487
425
559
547
451
447
515
514
497
549
505
516
555
501
494
463
753
370
551
493
537
467
399
567
572
508
518
501
529
478
529
472
530
506
494
535
471
567
492
494
632
551
490
494
488
451
524
520
462
528
478
736
454
417
627
583
471
447
506
553
543
508
466
504
545
559
535
424
702
534
453
405
549
559
491
433
578
581
479
491
473
578
453
550
545
504
489
536
536
501
590
404
512
585
527
465
557
423
523
500
581
464
510
697
428
484
494
630
453
478
467
668
452
495
603
527
506
478
528
520
616
446
478
467
583
487
490
497
508
614
483
465
506
584
478
503
417
697
479
495
495
523
510
446
475
631
525
448
560
575
519
559
538
494
540
541
494
479
517
639
415
514
473
564
560
459
498
553
524
449
559
515
575
484
507
475
557
548
450
419
754
482
464
463
628
540
387
474
491
535
454
627
574
512
534
481
468
490
475
488
561
565
601
546
523
378
519
603
440
632
475
664
448
536
457
554
506
483
442
663
463
417
632
486
581
495
476
538
532
507
542
549
571
515
502
463
530
566
518
575
419
626
522
379
522
641
499
422
506
571
576
430
510
484
584
496
466
433
593
641
387
549
600
627
428
509
496
519
473
497
496
547
525
454
440
538
619
478
472
500
618
547
391
613
554
554
474
474
495
620
462
516
470
562
504
531
490
617
516
507
492
484
625
436
493
546
543
450
502
503
507
590
543
508
723
468
556
489
468
642
463
514
510
496
539
489
478
545
554
487
631
505
560
537
464
469
482
511
467
514
545
556
444
488
452
616
633
473
497
624
516
373
510
586
518
458
633
504
547
486
451
444
612
667
470
509
519
561
480
448
487
670
495
498
451
519
622
478
532
487
666
473
504
423
605
543
487
426
506
547
556
460
507
611
480
505
447
530
644
521
406
611
547
424
576
495
540
435
503
521
610
495
480
512
543
474
493
463
463
666
513
427
558
550
473
365
521
648
515
541
508
506
495
465
519
479
626
542
457
472
549
526
548
556
519
539
425
530
565
529
517
594
448
532
600
471
532
600
595
512
496
501
563
526
465
544
538
596
503
463
464
621
373
532
550
557
457
503
570
463
570
525
484
535
493
525
543
460
638
525
497
453
606
486
502
419
585
621
518
545
463
570
506
491
435
554
556
471
510
582
557
449
578
478
557
519
509
501
542
532
483
511
530
500
454
526
528
553
608
473
496
544
475
379
657
490
598
596
509
506
494
478
478
489
581
499
497
478
550
628
471
459
550
617
373
510
579
569
487
462
493
545
529
476
541
515
572
465
463
487
627
479
483
538
564
508
523
568
554
549
554
473
460
643
492
449
439
592
606
465
521
501
562
459
455
407
577
567
451
488
560
541
422
608
476
562
560
473
442
623
471
482
522
605
574
470
573
485
535
493
484
474
614
486
500
540
480
497
524
588
516
577
497
511
499
559
492
509
531
503
484
474
518
601
598
391
485
627
446
448
550
548
483
541
487
503
533
529
560
527
437
577
572
453
566
491
584
455
561
507
547
508
496
486
500
599
470
489
493
481
522
456
603
623
476
450
488
595
462
441
519
589
501
464
541
531
593
447
486
523
616
491
497
503
553
509
381
664
590
603
477
490
491
538
463
483
598
532
615
489
500
483
609
470
505
516
537
487
501
479
552
530
486
526
532
578
549
501
520
587
475
494
509
483
557
545
478
544
510
509
484
455
555
491
490
497
550
530
505
512
537
551
465
557
505
555
478
521
524
544
508
525
506
529
506
508
454
506
607
468
492
533
556
493
470
448
644
512
456
567
499
564
467
470
517
579
540
546
508
530
556
552
464
496
532
485
509
463
570
524
476
495
528
586
487
482
600
569
468
572
453
599
614
488
449
559
548
440
484
486
499
486
477
419
581
559
515
516
554
529
484
435
558
568
506
531
467
557
579
486
552
477
581
469
413
545
661
448
573
467
548
520
454
525
533
531
474
484
484
554
638
446
472
622
521
490
486
527
487
496
585
501
559
554
464
451
566
511
474
505
556
500
480
486
568
545
557
490
461
574
528
424
464
640
494
439
513
574
574
468
332
549
675
490
513
537
529
535
499
460
541
595
518
504
481
569
453
463
629
454
515
505
466
530
585
496
539
522
555
489
469
502
644
483
504
491
527
556
481
523
425
616
517
482
540
554
478
521
591
472
603
498
458
463
515
539
507
532
617
493
458
505
512
592
495
488
455
601
486
494
570
552
512
502
486
548
566
387
504
602
519
489
432
649
543
490
464
540
540
535
425
499
534
629
523
455
437
553
580
466
445
643
580
476
475
506
566
439
515
501
562
545
505
474
563
543
440
514
502
657
457
464
459
575
584
418
550
562
584
496
475
512
543
454
502
616
573
478
495
597
482
567
534
483
538
616
445
485
499
547
546
503
498
581
538
414
503
554
624
559
485
546
542
534
441
420
693
566
464
477
532
564
489
462
470
511
531
484
476
587
561
498
494
479
643
459
491
431
613
620
384
508
579
556
423
491
433
603
547
462
456
551
560
451
466
557
616
464
541
512
526
462
552
432
509
600
450
493
513
474
509
540
492
616
495
517
460
551
536
511
543
493
550
479
489
497
679
508
465
591
488
526
512
493
572
528
480
506
497
529
505
483
512
529
534
533
477
534
500
469
523
483
577
611
407
508
574
478
441
456
687
495
512
497
520
647
425
467
561
520
479
452
502
517
598
536
541
487
559
514
458
494
502
569
581
467
547
567
472
462
492
579
486
486
499
626
525
459
550
547
509
496
497
485
601
514
450
457
692
444
556
475
508
483
455
613
505
557
536
512
465
504
486
504
550
612
597
490
462
490
563
507
436
511
543
503
491
503
542
567
479
480
494
522
508
548
481
598
575
474
464
544
525
485
524
478
570
592
515
471
601
488
461
635
469
576
525
558
494
537
473
474
491
597
496
476
487
599
532
428
499
622
526
472
503
519
533
562
498
561
570
483
448
532
494
550
479
484
492
567
496
530
525
489
645
454
479
605
510
492
486
446
568
512
496
529
562
526
449
503
536
621
481
512
536
549
482
411
630
564
524
565
521
504
555
478
508
509
619
467
469
515
619
552
454
504
489
590
506
432
563
523
492
524
514
520
537
499
496
500
591
486
485
501
619
478
512
455
626
501
526
488
582
557
454
504
480
596
516
500
495
572
508
445
543
511
546
477
510
528
631
432
513
569
433
517
579
508
506
606
466
471
446
589
482
528
538
559
509
451
538
530
486
485
587
435
583
469
493
452
589
542
478
562
577
569
429
476
498
596
490
490
512
569
529
458
507
536
589
449
503
494
598
494
497
475
629
527
484
506
536
581
455
495
637
518
474
538
445
505
526
516
488
588
593
454
504
509
581
447
484
540
569
537
432
505
521
558
625
494
514
565
500
444
477
614
561
497
559
519
582
441
499
546
596
502
495
492
553
484
514
509
538
482
476
698
393
627
524
495
472
540
505
493
521
555
547
457
508
517
587
478
477
472
581
512
475
538
532
568
392
545
617
558
533
457
547
523
503
451
528
622
496
457
505
574
582
445
549
477
475
549
454
509
536
637
454
502
510
560
477
536
467
542
525
478
504
566
566
474
540
476
551
467
517
513
567
554
482
477
528
553
495
486
535
570
483
483
491
578
547
476
530
477
589
474
454
518
739
469
445
554
675
501
473
494
528
536
470
489
531
591
531
463
547
562
541
482
534
498
541
536
438
530
673
487
454
491
584
600
459
482
530
605
500
506
625
509
486
512
422
613
463
543
512
549
571
447
427
519
601
472
492
496
557
437
530
435
526
541
461
584
483
559
607
548
475
683
520
429
421
586
546
440
525
506
673
427
534
474
650
383
561
505
599
459
552
499
482
577
506
476
514
551
452
548
575
494
567
505
506
486
544
549
454
469
657
492
466
455
590
551
453
535
478
637
471
517
464
552
542
470
327
735
599
436
535
542
513
417
504
489
609
561
510
456
630
486
464
503
524
611
441
490
561
584
490
475
491
561
475
478
596
438
677
504
462
450
690
461
488
508
495
588
506
473
517
611
441
481
467
566
542
569
486
589
553
383
650
643
458
530
506
469
591
437
437
521
635
535
470
478
544
571
458
486
482
594
494
487
484
562
527
452
516
558
559
490
504
463
543
610
480
428
575
502
541
498
492
531
496
500
440
629
515
495
532
503
552
440
508
544
637
429
465
384
698
526
464
506
636
515
427
466
536
621
462
466
466
643
463
500
475
620
549
459
470
595
547
429
497
463
679
447
479
477
628
509
415
494
553
608
437
438
461
735
386
461
568
613
522
418
492
597
581
503
472
510
636
457
464
480
627
503
464
481
563
567
506
479
479
692
432
460
473
643
593
410
488
577
644
410
461
496
649
450
453
476
615
497
466
485
573
636
474
472
489
595
523
395
528
600
591
466
462
548
606
451
485
464
660
468
434
452
618
496
402
399
546
769
416
459
554
599
453
444
410
596
567
455
479
551
604
473
469
493
623
563
452
446
649
520
468
547
589
592
453
502
491
616
459
483
453
540
521
534
479
561
609
494
480
524
599
445
332
493
798
495
500
540
603
423
455
471
536
656
492
446
433
558
492
476
579
607
536
501
563
478
687
451
439
425
601
535
515
484
587
572
448
462
506
622
472
486
456
555
524
423
517
647
529
395
551
554
582
477
469
449
627
512
448
478
646
524
405
512
502
680
469
483
415
674
484
440
506
616
539
438
470
512
642
458
476
470
607
505
447
470
531
620
475
511
531
595
494
500
504
580
544
496
461
572
498
553
497
533
601
478
473
520
610
471
494
485
611
439
484
498
644
482
490
513
492
545
476
494
475
555
523
433
494
542
616
452
445
483
590
493
488
517
625
532
446
484
546
567
547
495
473
570
538
452
426
539
666
475
506
591
562
434
452
483
582
479
470
512
609
499
450
503
534
552
466
530
472
585
497
558
438
587
506
531
509
515
557
478
511
498
591
482
477
524
554
538
451
473
572
650
492
455
415
736
437
493
566
557
495
451
523
526
550
477
508
498
526
472
575
465
596
536
454
471
518
615
593
452
513
580
465
459
484
545
589
462
483
546
595
481
480
479
623
466
507
490
632
545
491
490
554
632
424
473
466
618
493
463
478
565
565
484
493
550
476
463
551
453
593
502
483
476
533
529
464
546
578
560
432
472
484
625
508
525
523
546
441
494
536
544
552
518
492
389
557
490
502
542
564
480
470
522
523
589
469
503
501
582
469
477
517
538
557
465
542
558
545
519
494
487
640
545
478
505
540
557
424
455
559
564
430
541
509
591
494
484
458
587
506
553
495
533
510
538
523
481
629
501
506
467
532
533
469
402
613
690
389
539
653
592
449
459
500
561
551
500
488
546
551
482
427
572
602
459
527
491
534
513
495
463
600
562
463
528
497
564
526
526
469
526
510
468
512
608
524
469
514
499
593
488
458
507
573
507
529
476
560
547
449
417
535
731
445
509
494
559
474
476
478
607
594
440
478
564
584
479
497
489
581
502
494
469
558
570
467
473
510
637
515
461
470
574
552
453
437
585
615
520
483
464
671
501
391
489
479
517
495
479
558
591
500
502
476
664
433
456
537
587
580
452
493
573
514
436
529
505
616
497
480
489
587
486
502
499
542
536
492
459
538
635
443
479
496
629
488
464
507
562
529
492
487
508
588
471
495
479
580
500
469
510
562
528
451
562
573
539
486
538
446
541
561
456
494
630
478
445
505
487
615
477
508
470
557
492
480
490
565
601
477
501
584
570
408
478
505
633
484
472
508
553
532
435
534
479
636
482
478
471
592
490
485
456
559
621
433
502
576
582
447
495
470
584
484
478
488
643
532
485
495
490
597
456
486
481
608
484
509
497
549
527
409
488
517
542
513
510
489
573
541
458
500
564
537
474
474
500
597
475
499
484
658
514
439
466
585
511
451
495
529
600
470
487
456
618
484
460
509
581
587
441
487
550
616
424
438
611
563
514
433
563
591
485
426
560
590
575
451
494
515
665
481
485
510
585
506
471
457
519
589
474
485
422
648
471
441
507
612
530
454
456
517
560
466
448
487
545
469
471
528
595
505
490
503
546
556
480
487
515
582
484
530
491
622
543
485
558
505
541
517
497
475
571
464
515
456
560
558
474
500
569
566
459
473
528
574
484
517
508
576
495
428
543
671
546
478
472
510
542
439
428
509
663
541
484
475
536
548
482
490
455
665
541
467
496
555
518
388
488
629
533
466
493
507
542
432
475
497
637
504
494
499
530
528
466
451
485
631
540
468
498
565
499
419
509
583
597
390
553
535
551
467
510
473
536
505
441
513
609
518
506
514
513
591
454
490
467
575
499
473
559
562
552
466
499
432
685
497
455
528
574
495
437
476
592
547
448
528
568
550
447
507
490
540
491
489
492
573
593
429
479
499
638
509
498
498
604
484
432
494
578
512
494
509
477
643
460
456
534
563
459
451
537
490
527
510
548
511
579
466
497
480
551
519
476
503
541
566
455
502
503
572
503
493
475
535
525
487
481
543
500
557
591
511
545
511
532
443
552
541
497
488
567
498
450
522
545
575
461
492
516
515
577
495
503
499
539
584
455
529
613
516
460
389
512
528
486
548
569
574
445
531
504
584
475
488
491
563
541
477
495
566
523
471
495
511
553
472
583
432
504
569
509
476
548
563
458
501
528
550
473
520
495
582
528
487
464
569
539
468
508
487
549
555
489
496
648
499
474
488
566
500
449
495
594
567
457
464
514
585
473
468
551
584
512
464
520
519
533
505
481
469
688
454
456
509
672
560
464
521
550
570
413
487
506
580
507
492
501
506
449
619
512
504
679
523
466
468
604
482
492
524
518
502
472
482
529
639
473
506
486
573
511
468
512
538
544
495
517
494
614
468
482
515
587
500
525
514
532
538
487
478
513
579
413
515
522
597
480
490
500
539
508
459
501
554
543
480
493
482
575
470
516
482
619
587
446
514
600
536
336
487
509
580
461
521
543
526
483
571
479
503
620
474
476
593
628
473
510
502
579
515
457
500
587
565
449
449
501
622
496
509
490
579
495
465
505
589
559
464
477
371
581
592
392
542
589
551
406
508
557
587
448
493
503
565
474
462
502
610
553
478
491
488
524
554
541
512
696
480
486
469
483
473
509
494
597
598
468
478
489
613
494
477
494
591
499
449
514
500
562
574
576
526
655
501
470
438
535
485
486
560
550
591
480
463
482
655
435
497
483
599
475
475
538
537
622
409
503
392
719
448
495
487
590
514
441
495
589
538
504
480
480
601
502
472
503
572
498
475
485
539
682
451
535
500
596
430
482
522
526
527
564
457
555
582
428
520
510
565
480
513
486
612
521
474
491
541
575
437
477
539
635
511
494
442
641
468
473
497
538
586
519
452
483
628
454
534
495
590
509
476
527
522
600
480
494
494
605
443
470
454
662
463
406
529
564
588
443
471
526
645
535
485
467
549
505
488
471
565
509
478
542
462
591
450
482
499
517
489
478
573
602
546
486
549
480
559
513
459
487
617
549
486
482
602
516
469
518
526
612
485
478
447
517
558
488
427
620
586
439
483
476
649
502
487
502
568
476
477
542
491
607
496
470
542
618
449
475
452
567
548
480
479
644
501
444
510
536
691
471
482
503
597
472
386
511
669
544
481
507
466
606
489
468
456
604
491
468
584
498
601
460
500
512
616
447
455
496
616
498
437
496
628
510
458
487
545
524
494
556
487
616
542
460
504
519
520
475
521
536
599
447
520
473
593
539
474
512
570
497
473
499
550
582
464
517
485
595
521
493
507
550
516
529
462
551
598
469
476
536
614
484
472
496
549
510
473
536
492
596
457
465
539
517
539
499
497
553
473
454
543
493
575
453
482
499
633
504
481
519
538
535
462
579
527
577
429
568
487
562
568
473
495
543
502
530
503
541
575
467
455
486
602
521
510
482
569
484
464
576
489
583
462
512
479
574
503
443
534
567
496
512
493
554
577
481
499
492
584
473
503
528
525
489
533
531
530
593
437
515
416
620
474
501
561
556
480
440
490
523
604
491
460
569
558
477
526
509
509
506
480
495
544
654
454
447
567
575
467
517
500
561
515
494
536
541
548
417
509
484
568
549
482
513
515
549
445
497
555
672
447
480
477
573
478
507
482
605
542
504
530
524
588
454
397
472
619
517
514
505
641
489
467
473
551
565
513
498
504
638
535
501
503
591
500
482
458
512
594
422
598
514
547
533
428
494
600
499
517
528
517
625
438
489
478
637
492
470
470
614
487
467
519
535
651
423
424
553
748
305
453
552
569
470
484
569
552
558
356
414
585
605
496
509
565
565
473
461
468
594
633
461
482
480
639
478
474
509
565
532
447
496
641
650
457
456
468
697
393
462
525
591
495
466
488
595
617
455
491
477
600
479
501
473
657
457
479
510
546
624
479
519
470
649
414
482
523
602
480
455
486
528
643
476
497
523
643
428
494
467
573
522
461
465
511
652
521
450
566
620
443
485
451
539
492
477
497
541
565
479
553
469
655
506
447
473
627
482
465
515
606
561
412
476
500
689
466
462
451
676
464
441
527
559
545
472
538
510
660
454
444
412
609
548
461
501
578
587
444
484
508
634
444
518
420
591
571
443
510
639
546
452
484
598
648
437
485
445
552
455
442
527
608
686
470
490
513
619
444
466
434
618
535
464
501
548
556
490
502
510
637
454
435
491
515
526
478
509
556
554
438
485
522
649
483
457
426
618
535
465
470
576
606
514
477
544
665
480
471
439
571
518
489
489
589
549
343
547
563
586
468
491
462
598
489
499
522
596
540
467
492
497
653
469
457
485
620
519
453
495
615
575
406
476
538
593
503
551
385
642
547
467
473
642
563
435
532
550
594
405
481
497
560
537
430
431
626
661
412
510
563
604
431
474
463
611
590
456
500
552
601
494
493
505
647
474
477
399
623
573
467
500
596
538
420
496
514
590
497
441
447
681
499
488
473
574
626
462
483
546
621
460
480
492
540
534
568
460
607
568
458
486
529
587
489
513
487
611
522
452
509
594
545
474
496
517
592
493
483
503
567
517
506
510
566
499
486
513
467
614
506
458
459
705
582
447
486
570
502
475
501
534
643
405
473
457
642
494
467
497
654
566
467
543
602
566
506
484
455
594
502
479
511
528
474
506
588
497
643
494
479
469
567
461
523
530
562
554
464
497
518
572
471
481
478
580
508
491
501
580
492
482
538
500
628
445
478
474
647
427
503
574
623
521
498
518
497
595
438
489
487
639
475
478
491
551
557
423
489
629
593
460
508
478
609
499
459
488
617
516
454
515
538
587
416
489
560
602
475
522
512
547
521
455
516
528
654
438
468
536
597
461
481
508
547
522
501
509
543
593
469
499
470
580
449
531
548
562
513
430
535
554
561
502
517
488
631
455
478
504
579
529
482
507
569
547
447
523
485
604
484
495
526
579
507
479
493
561
598
451
503
498
633
478
442
493
688
510
513
514
538
573
484
445
523
642
465
476
488
543
519
474
507
538
603
478
487
491
606
485
465
472
587
535
482
519
522
580
519
541
498
631
501
481
476
513
500
528
519
627
571
481
487
488
600
472
484
521
586
501
460
491
581
602
505
505
502
620
476
499
488
616
493
479
506
540
595
480
501
496
609
486
487
525
604
524
464
501
574
575
461
502
500
584
478
472
539
591
505
445
504
605
600
469
459
518
623
406
459
518
584
511
464
476
569
558
463
498
527
558
488
504
524
578
505
425
514
554
550
489
500
498
634
469
459
518
620
489
475
559
534
586
488
502
496
599
458
479
539
601
503
473
518
560
537
440
509
506
581
460
456
513
680
504
523
500
561
547
420
480
530
636
462
476
487
578
487
489
518
538
541
475
520
471
596
470
449
503
607
573
487
510
574
541
424
483
508
613
449
509
463
601
524
446
485
562
605
417
537
490
639
482
474
458
582
541
493
480
558
681
381
484
494
608
433
478
495
633
509
478
485
553
612
429
477
547
675
440
476
470
606
504
458
488
593
601
446
443
517
639
415
496
531
549
512
452
495
562
601
446
513
514
610
465
524
437
626
499
467
539
547
620
406
509
541
551
466
594
442
567
506
459
500
554
613
440
530
499
683
454
459
476
538
566
471
478
659
564
412
478
476
633
473
468
483
674
509
436
510
548
573
489
494
526
688
461
482
420
476
525
508
456
613
647
475
456
471
614
480
491
492
632
557
487
483
582
547
458
475
504
578
523
527
461
631
500
444
505
555
618
430
489
533
621
447
460
445
646
523
472
520
620
546
431
485
486
657
499
469
401
624
506
487
551
562
581
435
500
531
595
472
499
435
606
520
436
529
579
629
439
472
525
619
495
475
423
626
508
510
489
534
585
495
481
497
630
504
465
443
606
535
460
498
583
528
443
548
489
631
499
507
439
606
513
519
506
598
587
437
475
584
575
486
484
466
594
515
457
465
600
610
407
480
534
595
447
523
461
586
538
470
500
558
581
447
496
504
629
519
465
460
615
551
446
479
588
500
469
499
534
532
594
477
500
569
513
478
513
546
521
513
533
494
577
462
478
538
571
517
484
475
565
493
427
547
555
552
439
501
488
544
540
526
507
584
482
464
544
501
556
483
487
480
523
496
507
567
543
552
478
504
531
589
487
471
485
568
530
484
503
579
506
471
499
520
590
497
481
453
582
541
441
599
574
497
494
532
545
602
467
496
473
583
506
473
482
574
546
467
482
532
555
458
498
512
588
487
487
490
466
552
578
517
534
633
481
385
417
603
536
487
487
670
499
432
526
542
590
454
473
478
597
531
453
549
622
536
461
537
531
550
445
504
486
558
484
489
500
589
589
464
502
488
587
473
476
491
548
506
488
514
594
512
428
515
552
579
471
503
466
514
547
523
511
596
543
470
495
496
602
484
466
512
560
487
506
518
561
512
466
492
547
633
470
480
467
554
551
464
487
592
574
438
499
541
596
475
486
451
575
546
443
521
665
486
510
490
531
593
449
480
421
596
526
439
518
611
505
458
515
506
580
464
467
482
606
527
464
516
553
533
499
498
552
601
472
493
464
555
498
522
508
574
529
467
515
484
569
539
480
504
579
499
454
480
611
520
475
527
527
589
450
511
490
606
518
474
498
564
538
476
485
527
618
445
478
485
584
487
485
493
585
518
457
498
559
543
480
546
486
535
561
524
462
572
564
467
487
500
540
482
511
484
597
492
431
508
646
550
466
523
550
511
435
476
511
624
473
472
478
537
643
454
512
566
540
464
489
481
563
567
531
471
565
564
446
478
551
490
481
485
498
560
511
505
500
606
505
435
478
583
622
450
498
515
658
426
484
500
611
530
463
503
548
580
473
481
468
571
614
400
457
632
563
416
543
551
546
451
510
433
632
539
451
466
608
440
469
536
562
580
491
461
482
578
468
469
490
610
567
450
516
540
570
460
424
488
608
503
487
493
599
537
504
461
533
616
437
501
476
646
450
466
501
543
538
491
552
549
539
461
503
472
620
489
480
500
565
515
456
518
570
566
458
509
461
614
496
460
597
622
509
444
513
502
564
489
507
497
598
479
498
491
582
560
454
502
529
575
452
479
504
609
483
484
517
600
498
450
540
551
591
447
483
500
596
480
460
484
624
643
456
507
550
586
371
485
637
590
668
473
485
533
503
474
566
565
584
427
489
499
573
452
452
602
596
513
525
511
498
573
439
472
467
621
473
487
499
579
515
478
554
547
528
434
475
621
589
493
446
455
553
545
452
516
574
574
434
495
475
626
526
580
502
707
499
458
499
548
586
458
472
458
654
484
478
513
576
472
468
572
550
584
492
486
496
551
546
449
512
564
514
480
480
532
580
475
500
483
600
497
488
500
584
495
478
525
546
594
463
494
500
572
495
489
546
526
555
512
483
474
600
476
478
479
634
495
396
524
626
512
538
508
546
526
451
487
472
607
497
470
512
585
522
445
518
591
549
464
550
456
595
479
416
539
617
474
458
502
583
554
429
495
507
597
481
489
556
632
504
470
474
548
628
456
482
513
600
455
490
506
562
579
434
487
570
540
454
496
481
574
520
460
528
618
513
430
506
534
559
508
498
487
680
447
490
498
568
519
445
513
493
528
556
526
467
653
475
464
505
519
541
470
507
527
571
482
509
526
699
479
497
533
565
500
463
485
545
603
470
469
458
610
448
507
504
590
528
480
553
528
534
481
530
476
580
481
468
489
632
565
444
500
581
604
443
505
490
606
472
473
529
570
497
502
523
510
584
480
487
488
582
460
553
528
598
500
481
522
507
574
467
491
519
590
475
523
477
527
563
419
496
553
601
513
463
496
605
478
476
504
598
511
453
515
547
574
470
487
501
617
475
493
523
569
509
484
505
542
570
458
476
492
559
505
472
499
597
499
462
465
528
609
481
503
499
631
467
467
507
571
518
501
500
552
611
463
515
477
536
505
541
515
595
513
471
523
537
539
461
507
502
581
500
475
480
697
554
433
533
544
554
465
429
511
611
485
523
497
574
532
440
514
555
513
496
490
495
608
478
475
579
566
477
514
480
562
552
457
514
508
610
494
487
481
581
478
506
520
559
585
462
515
476
592
477
497
503
527
548
469
493
528
606
536
477
476
628
466
466
534
528
551
470
491
548
542
444
498
541
590
438
501
527
549
532
501
522
460
584
475
549
513
632
451
525
508
558
521
474
540
546
556
436
503
498
603
491
488
505
571
518
505
520
452
601
490
441
497
484
514
509
533
571
525
465
489
563
602
453
512
520
584
479
488
496
578
559
486
526
560
567
468
481
467
580
541
493
519
565
497
483
517
530
543
501
482
477
585
481
501
500
552
503
460
529
646
505
466
546
490
557
475
517
522
570
505
454
486
590
549
485
503
450
569
493
468
526
592
532
464
507
543
563
488
506
485
605
512
487
505
560
516
491
533
540
564
408
515
542
565
453
555
516
527
454
492
445
500
588
466
461
494
670
506
638
478
554
501
494
532
554
550
497
474
502
612
518
523
509
551
469
473
511
553
564
471
538
467
628
538
486
491
563
473
475
496
560
597
464
477
480
560
465
497
475
546
490
445
516
447
582
467
467
506
590
509
472
526
549
531
448
514
591
607
472
484
479
583
502
480
506
578
538
461
508
546
569
458
501
500
595
505
469
502
553
487
496
476
576
592
491
494
416
630
520
468
518
597
544
459
482
548
558
473
491
488
593
490
499
545
604
525
403
526
445
539
479
511
503
552
448
560
512
560
558
440
526
500
510
499
491
520
576
480
476
498
603
519
450
505
530
551
510
492
460
616
419
603
487
518
475
474
466
424
598
497
466
482
657
497
625
506
596
550
477
452
527
536
339
483
511
581
456
471
456
538
558
423
526
448
589
386
436
698
807
423
505
462
624
546
443
503
545
634
425
446
403
684
442
494
491
599
474
446
432
533
526
472
538
620
567
656
495
692
386
548
543
363
521
676
388
509
481
492
548
437
457
516
479
302
538
500
571
493
478
691
535
539
451
575
526
521
306
514
489
595
464
460
517
609
506
478
527
602
535
454
517
563
590
497
539
469
537
486
488
484
609
561
436
500
491
574
473
521
450
604
487
460
508
596
537
465
504
544
565
494
522
686
586
474
420
474
552
474
415
537
521
582
477
463
501
557
489
488
502
599
497
429
511
490
606
403
495
652
576
670
461
532
538
479
434
605
481
707
458
481
486
558
491
448
494
700
518
613
500
511
641
363
482
594
543
458
476
475
518
487
412
502
518
600
512
485
598
723
532
465
441
543
590
433
507
537
610
372
402
443
565
455
569
483
615
550
483
493
551
630
447
488
614
552
487
418
491
603
496
449
490
546
567
479
551
452
663
486
459
526
560
510
457
510
509
607
471
495
492
577
497
468
526
562
545
460
499
530
559
345
559
489
555
529
512
506
527
451
446
518
529
610
467
470
504
608
510
474
509
564
428
469
646
495
748
474
448
413
599
497
475
498
580
520
470
595
523
588
475
484
485
651
513
626
493
668
580
438
439
499
557
411
451
505
626
517
641
480
585
583
444
507
495
602
473
505
476
563
529
534
503
680
522
478
485
517
610
464
514
639
575
699
482
501
549
520
472
458
486
695
480
483
497
506
492
417
499
602
537
432
498
529
601
553
448
481
595
482
477
479
627
564
407
502
540
588
439
476
495
622
523
479
495
586
514
466
487
512
597
488
492
682
480
536
456
489
557
503
470
495
552
653
485
493
458
614
490
426
484
579
537
458
499
538
596
505
486
528
552
503
462
512
569
529
434
449
699
567
445
546
461
513
508
427
497
614
540
446
507
519
595
479
495
484
593
505
489
510
564
530
479
495
516
591
486
496
463
592
526
493
499
562
549
470
429
606
654
475
433
650
651
469
459
511
574
502
412
566
566
595
413
525
475
531
550
454
535
571
553
422
528
508
542
481
468
571
533
467
480
581
545
495
464
490
481
600
385
497
499
566
467
484
567
564
554
452
514
505
577
489
446
563
652
444
498
490
541
520
417
530
560
601
483
460
504
548
496
493
503
573
518
441
514
510
561
482
489
471
471
